10	141
10.01	139
10.02	142
10.03	136
10.04	134
10.05	142
10.06	149
10.07	130
10.08	144
10.09	149
10.1	142
10.11	134
10.12	126
10.13	146
10.14	131
10.15	134
10.16	119
10.17	140
10.18	131
10.19	131
10.2	133
10.21	122
10.22	124
10.23	118
10.24	128
10.25	114
10.26	124
10.27	118
10.28	112
10.29	134
10.3	114
10.31	121
10.32	118
10.33	108
10.34	108
10.35	109
10.36	112
10.37	107
10.38	93
10.39	91
10.4	86
10.41	75
10.42	99
10.43	89
10.44	75
10.45	105
10.46	101
10.47	84
10.48	96
10.49	85
10.5	85
10.51	63
10.52	88
10.53	87
10.54	72
10.55	74
10.56	81
10.57	72
10.58	86
10.59	80
10.6	93
10.61	81
10.62	77
10.63	71
10.64	77
10.65	74
10.66	77
10.67	81
10.68	70
10.69	68
10.7	58
10.71	73
10.72	73
10.73	69
10.74	86
10.75	84
10.76	83
10.77	75
10.78	82
10.79	76
10.8	64
10.81	86
10.82	67
10.83	72
10.84	62
10.85	87
10.86	79
10.87	57
10.88	84
10.89	81
10.9	77
10.91	72
10.92	75
10.93	76
10.94	80
10.95	93
10.96	80
10.97	71
10.98	79
10.99	78
11	88
11.01	78
11.02	74
11.03	66
11.04	75
11.05	82
11.06	83
11.07	81
11.08	81
11.09	80
11.1	86
11.11	58
11.12	68
11.13	65
11.14	66
11.15	74
11.16	85
11.17	73
11.18	70
11.19	82
11.2	74
11.21	71
11.22	81
11.23	78
11.24	70
11.25	80
11.26	69
11.27	75
11.28	83
11.29	75
11.3	77
11.31	83
11.32	70
11.33	66
11.34	73
11.35	72
11.36	66
11.37	63
11.38	72
11.39	86
11.4	59
11.41	87
11.42	89
11.43	70
11.44	90
11.45	65
11.46	72
11.47	93
11.48	69
11.49	78
11.5	76
11.51	95
11.52	82
11.53	86
11.54	73
11.55	93
11.56	82
11.57	66
11.58	75
11.59	57
11.6	80
11.61	69
11.62	81
11.63	74
11.64	69
11.65	77
11.66	81
11.67	66
11.68	80
11.69	57
11.7	81
11.71	80
11.72	85
11.73	77
11.74	80
11.75	73
11.76	67
11.77	74
11.78	81
11.79	65
11.8	58
11.81	93
11.82	84
11.83	86
11.84	61
11.85	85
11.86	83
11.87	69
11.88	74
11.89	86
11.9	78
11.91	55
11.92	76
11.93	63
11.94	69
11.95	79
11.96	77
11.97	58
11.98	79
11.99	66
12	64
12.01	79
12.02	80
12.03	83
12.04	91
12.05	77
12.06	71
12.07	58
12.08	81
12.09	70
12.1	74
12.11	68
12.12	66
12.13	72
12.14	74
12.15	79
12.16	70
12.17	71
12.18	94
12.19	82
12.2	91
12.21	74
12.22	87
12.23	72
12.24	74
12.25	92
12.26	67
12.27	72
12.28	72
12.29	55
12.3	83
12.31	78
12.32	70
12.33	72
12.34	82
12.35	64
12.36	70
12.37	91
12.38	75
12.39	77
12.4	84
12.41	64
12.42	73
12.43	77
12.44	78
12.45	76
12.46	70
12.47	75
12.48	78
12.49	67
12.5	90
12.51	97
12.52	71
12.53	71
12.54	71
12.55	88
12.56	91
12.57	70
12.58	85
12.59	74
12.6	91
12.61	92
12.62	96
12.63	76
12.64	71
12.65	79
12.66	72
12.67	86
12.68	92
12.69	79
12.7	83
12.71	77
12.72	71
12.73	65
12.74	87
12.75	85
12.76	81
12.77	77
12.78	83
12.79	73
12.8	80
12.81	78
12.82	84
12.83	57
12.84	86
12.85	78
12.86	81
12.87	91
12.88	83
12.89	88
12.9	65
12.91	87
12.92	78
12.93	83
12.94	91
12.95	82
12.96	93
12.97	79
12.98	96
12.99	69
13	91
13.01	80
13.02	78
13.03	94
13.04	76
13.05	79
13.06	87
13.07	90
13.08	81
13.09	80
13.1	81
13.11	84
13.12	78
13.13	76
13.14	74
13.15	85
13.16	79
13.17	98
13.18	88
13.19	83
13.2	83
13.21	72
13.22	73
13.23	83
13.24	84
13.25	89
13.26	82
13.27	78
13.28	72
13.29	101
13.3	75
13.31	74
13.32	73
13.33	86
13.34	76
13.35	80
13.36	65
13.37	84
13.38	72
13.39	80
13.4	81
13.41	72
13.42	65
13.43	86
13.44	83
13.45	87
13.46	83
13.47	69
13.48	94
13.49	91
13.5	99
13.51	100
13.52	78
13.53	86
13.54	76
13.55	68
13.56	79
13.57	84
13.58	74
13.59	69
13.6	76
13.61	84
13.62	92
13.63	70
13.64	81
13.65	82
13.66	81
13.67	91
13.68	84
13.69	96
13.7	79
13.71	86
13.72	87
13.73	87
13.74	81
13.75	90
13.76	82
13.77	75
13.78	87
13.79	98
13.8	64
13.81	88
13.82	72
13.83	77
13.84	83
13.85	80
13.86	78
13.87	86
13.88	83
13.89	85
13.9	91
13.91	79
13.92	91
13.93	98
13.94	81
13.95	77
13.96	87
13.97	86
13.98	66
13.99	79
14	71
14.01	82
14.02	80
14.03	87
14.04	73
14.05	88
14.06	88
14.07	81
14.08	75
14.09	79
14.1	92
14.11	97
14.12	71
14.13	91
14.14	76
14.15	89
14.16	86
14.17	89
14.18	92
14.19	79
14.2	70
14.21	92
14.22	69
14.23	84
14.24	86
14.25	73
14.26	85
14.27	88
14.28	80
14.29	65
14.3	82
14.31	78
14.32	62
14.33	77
14.34	87
14.35	68
14.36	87
14.37	88
14.38	70
14.39	99
14.4	78
14.41	88
14.42	80
14.43	84
14.44	88
14.45	81
14.46	93
14.47	75
14.48	74
14.49	73
14.5	104
14.51	83
14.52	77
14.53	77
14.54	72
14.55	96
14.56	75
14.57	84
14.58	77
14.59	93
14.6	97
14.61	74
14.62	69
14.63	73
14.64	98
14.65	78
14.66	93
14.67	74
14.68	72
14.69	85
14.7	84
14.71	86
14.72	83
14.73	78
14.74	82
14.75	69
14.76	60
14.77	83
14.78	79
14.79	76
14.8	79
14.81	69
14.82	67
14.83	71
14.84	62
14.85	85
14.86	76
14.87	83
14.88	72
14.89	72
14.9	83
14.91	75
14.92	83
14.93	77
14.94	69
14.95	68
14.96	70
14.97	67
14.98	65
14.99	79
15	66
15.01	75
15.02	89
15.03	70
15.04	72
15.05	70
15.06	80
15.07	91
15.08	66
15.09	68
15.1	64
15.11	75
15.12	74
15.13	76
15.14	69
15.15	79
15.16	71
15.17	71
15.18	88
15.19	84
15.2	77
15.21	81
15.22	80
15.23	61
15.24	72
15.25	71
15.26	73
15.27	82
15.28	92
15.29	58
15.3	57
15.31	82
15.32	79
15.33	81
15.34	72
15.35	74
15.36	74
15.37	74
15.38	75
15.39	84
15.4	59
15.41	79
15.42	87
15.43	52
15.44	76
15.45	61
15.46	83
15.47	79
15.48	84
15.49	75
15.5	80
15.51	69
15.52	72
15.53	88
15.54	82
15.55	81
15.56	83
15.57	76
15.58	67
15.59	74
15.6	68
15.61	73
15.62	58
15.63	81
15.64	66
15.65	84
15.66	101
15.67	65
15.68	76
15.69	53
15.7	62
15.71	83
15.72	69
15.73	68
15.74	79
15.75	72
15.76	66
15.77	59
15.78	81
15.79	64
15.8	85
15.81	71
15.82	73
15.83	73
15.84	72
15.85	66
15.86	77
15.87	78
15.88	61
15.89	70
15.9	81
15.91	78
15.92	66
15.93	63
15.94	86
15.95	65
15.96	84
15.97	77
15.98	70
15.99	85
16	76
16.01	86
16.02	64
16.03	72
16.04	70
16.05	59
16.06	67
16.07	75
16.08	60
16.09	69
16.1	67
16.11	70
16.12	73
16.13	71
16.14	86
16.15	71
16.16	78
16.17	84
16.18	79
16.19	72
16.2	80
16.21	65
16.22	78
16.23	85
16.24	94
16.25	75
16.26	71
16.27	72
16.28	91
16.29	59
16.3	78
16.31	87
16.32	65
16.33	71
16.34	66
16.35	72
16.36	80
16.37	78
16.38	88
16.39	91
16.4	76
16.41	79
16.42	68
16.43	75
16.44	79
16.45	61
16.46	65
16.47	96
16.48	74
16.49	61
16.5	68
16.51	72
16.52	76
16.53	67
16.54	71
16.55	71
16.56	76
16.57	68
16.58	73
16.59	66
16.6	66
16.61	62
16.62	75
16.63	93
16.64	67
16.65	79
16.66	87
16.67	89
16.68	72
16.69	83
16.7	78
16.71	83
16.72	68
16.73	76
16.74	61
16.75	67
16.76	90
16.77	76
16.78	58
16.79	74
16.8	61
16.81	75
16.82	74
16.83	65
16.84	88
16.85	65
16.86	76
16.87	92
16.88	85
16.89	93
16.9	73
16.91	98
16.92	80
16.93	61
16.94	74
16.95	69
16.96	77
16.97	66
16.98	75
16.99	60
17	65
17.01	78
17.02	76
17.03	92
17.04	80
17.05	79
17.06	60
17.07	79
17.08	67
17.09	78
17.1	80
17.11	76
17.12	73
17.13	65
17.14	89
17.15	67
17.16	71
17.17	83
17.18	63
17.19	62
17.2	72
17.21	79
17.22	66
17.23	68
17.24	75
17.25	81
17.26	66
17.27	69
17.28	68
17.29	71
17.3	65
17.31	79
17.32	65
17.33	81
17.34	78
17.35	60
17.36	77
17.37	78
17.38	75
17.39	66
17.4	73
17.41	64
17.42	67
17.43	56
17.44	58
17.45	86
17.46	70
17.47	67
17.48	90
17.49	71
17.5	78
17.51	63
17.52	71
17.53	75
17.54	84
17.55	76
17.56	64
17.57	70
17.58	73
17.59	61
17.6	62
17.61	53
17.62	59
17.63	59
17.64	77
17.65	62
17.66	55
17.67	85
17.68	73
17.69	60
17.7	62
17.71	58
17.72	59
17.73	81
17.74	77
17.75	66
17.76	60
17.77	55
17.78	63
17.79	65
17.8	67
17.81	58
17.82	64
17.83	66
17.84	59
17.85	78
17.86	69
17.87	74
17.88	77
17.89	84
17.9	79
17.91	63
17.92	54
17.93	73
17.94	69
17.95	76
17.96	67
17.97	75
17.98	76
17.99	54
18	61
18.01	59
18.02	64
18.03	64
18.04	55
18.05	65
18.06	59
18.07	61
18.08	68
18.09	66
18.1	83
18.11	56
18.12	71
18.13	65
18.14	64
18.15	74
18.16	77
18.17	71
18.18	57
18.19	66
18.2	64
18.21	88
18.22	78
18.23	94
18.24	69
18.25	69
18.26	61
18.27	72
18.28	68
18.29	80
18.3	57
18.31	74
18.32	60
18.33	70
18.34	77
18.35	70
18.36	65
18.37	78
18.38	73
18.39	65
18.4	67
18.41	65
18.42	72
18.43	67
18.44	70
18.45	64
18.46	56
18.47	73
18.48	57
18.49	75
18.5	64
18.51	73
18.52	62
18.53	75
18.54	79
18.55	59
18.56	66
18.57	62
18.58	80
18.59	74
18.6	63
18.61	82
18.62	74
18.63	81
18.64	67
18.65	75
18.66	60
18.67	72
18.68	79
18.69	76
18.7	77
18.71	73
18.72	63
18.73	63
18.74	84
18.75	65
18.76	62
18.77	70
18.78	66
18.79	60
18.8	61
18.81	78
18.82	73
18.83	63
18.84	58
18.85	87
18.86	64
18.87	66
18.88	72
18.89	75
18.9	68
18.91	65
18.92	70
18.93	70
18.94	70
18.95	65
18.96	78
18.97	89
18.98	72
18.99	74
19	77
19.01	64
19.02	61
19.03	59
19.04	54
19.05	64
19.06	57
19.07	75
19.08	60
19.09	53
19.1	71
19.11	67
19.12	73
19.13	69
19.14	63
19.15	73
19.16	84
19.17	67
19.18	73
19.19	68
19.2	83
19.21	78
19.22	72
19.23	73
19.24	71
19.25	58
19.26	66
19.27	70
19.28	67
19.29	82
19.3	65
19.31	57
19.32	72
19.33	61
19.34	59
19.35	81
19.36	69
19.37	75
19.38	65
19.39	76
19.4	82
19.41	84
19.42	60
19.43	84
19.44	65
19.45	80
19.46	52
19.47	58
19.48	65
19.49	59
19.5	72
19.51	78
19.52	77
19.53	70
19.54	63
19.55	66
19.56	70
19.57	78
19.58	64
19.59	75
19.6	68
19.61	72
19.62	80
19.63	68
19.64	66
19.65	68
19.66	60
19.67	64
19.68	62
19.69	66
19.7	72
19.71	78
19.72	62
19.73	80
19.74	74
19.75	76
19.76	70
19.77	71
19.78	71
19.79	62
19.8	62
19.81	56
19.82	76
19.83	61
19.84	75
19.85	64
19.86	82
19.87	80
19.88	89
19.89	89
19.9	78
19.91	85
19.92	54
19.93	77
19.94	68
19.95	76
19.96	87
19.97	77
19.98	87
19.99	80
20	81
20.01	74
20.02	68
20.03	77
20.04	81
20.05	64
20.06	84
20.07	73
20.08	74
20.09	76
20.1	78
20.11	91
20.12	67
20.13	65
20.14	70
20.15	73
20.16	86
20.17	63
20.18	61
20.19	65
20.2	55
20.21	64
20.22	59
20.23	81
20.24	74
20.25	68
20.26	76
20.27	76
20.28	76
20.29	68
20.3	65
20.31	77
20.32	79
20.33	67
20.34	65
20.35	73
20.36	73
20.37	72
20.38	77
20.39	64
20.4	65
20.41	77
20.42	86
20.43	85
20.44	68
20.45	78
20.46	75
20.47	66
20.48	66
20.49	73
20.5	78
20.51	64
20.52	77
20.53	71
20.54	77
20.55	76
20.56	65
20.57	59
20.58	67
20.59	88
20.6	71
20.61	84
20.62	65
20.63	77
20.64	76
20.65	70
20.66	67
20.67	72
20.68	75
20.69	64
20.7	71
20.71	76
20.72	62
20.73	75
20.74	67
20.75	69
20.76	88
20.77	72
20.78	74
20.79	84
20.8	72
20.81	76
20.82	89
20.83	99
20.84	76
20.85	62
20.86	89
20.87	78
20.88	62
20.89	62
20.9	70
20.91	66
20.92	75
20.93	72
20.94	66
20.95	80
20.96	57
20.97	80
20.98	64
20.99	57
21	72
21.01	70
21.02	78
21.03	62
21.04	79
21.05	79
21.06	78
21.07	82
21.08	59
21.09	73
21.1	66
21.11	75
21.12	84
21.13	65
21.14	87
21.15	59
21.16	68
21.17	83
21.18	83
21.19	67
21.2	68
21.21	63
21.22	80
21.23	83
21.24	74
21.25	70
21.26	83
21.27	83
21.28	88
21.29	69
21.3	80
21.31	79
21.32	67
21.33	67
21.34	76
21.35	75
21.36	71
21.37	90
21.38	76
21.39	73
21.4	73
21.41	85
21.42	63
21.43	84
21.44	69
21.45	69
21.46	75
21.47	67
21.48	70
21.49	74
21.5	81
21.51	69
21.52	76
21.53	80
21.54	74
21.55	78
21.56	82
21.57	69
21.58	81
21.59	63
21.6	73
21.61	79
21.62	76
21.63	76
21.64	66
21.65	75
21.66	68
21.67	79
21.68	70
21.69	84
21.7	85
21.71	75
21.72	74
21.73	73
21.74	69
21.75	74
21.76	63
21.77	70
21.78	87
21.79	76
21.8	65
21.81	67
21.82	76
21.83	71
21.84	79
21.85	78
21.86	84
21.87	75
21.88	75
21.89	60
21.9	70
21.91	62
21.92	76
21.93	71
21.94	60
21.95	88
21.96	69
21.97	75
21.98	73
21.99	69
22	74
22.01	77
22.02	61
22.03	70
22.04	77
22.05	77
22.06	83
22.07	78
22.08	72
22.09	93
22.1	74
22.11	74
22.12	91
22.13	82
22.14	81
22.15	74
22.16	73
22.17	87
22.18	74
22.19	66
22.2	68
22.21	63
22.22	86
22.23	78
22.24	87
22.25	88
22.26	73
22.27	80
22.28	72
22.29	83
22.3	80
22.31	72
22.32	71
22.33	74
22.34	88
22.35	85
22.36	72
22.37	78
22.38	65
22.39	73
22.4	58
22.41	90
22.42	70
22.43	68
22.44	83
22.45	76
22.46	78
22.47	79
22.48	76
22.49	67
22.5	81
22.51	100
22.52	91
22.53	87
22.54	66
22.55	78
22.56	81
22.57	72
22.58	64
22.59	83
22.6	82
22.61	85
22.62	78
22.63	66
22.64	60
22.65	81
22.66	75
22.67	83
22.68	73
22.69	93
22.7	76
22.71	71
22.72	74
22.73	79
22.74	76
22.75	75
22.76	77
22.77	77
22.78	75
22.79	63
22.8	68
22.81	82
22.82	69
22.83	93
22.84	72
22.85	74
22.86	70
22.87	82
22.88	74
22.89	76
22.9	85
22.91	78
22.92	90
22.93	90
22.94	80
22.95	82
22.96	82
22.97	65
22.98	78
22.99	69
23	95
23.01	75
23.02	100
23.03	79
23.04	87
23.05	93
23.06	73
23.07	82
23.08	66
23.09	81
23.1	78
23.11	79
23.12	62
23.13	87
23.14	94
23.15	85
23.16	89
23.17	77
23.18	82
23.19	88
23.2	93
23.21	77
23.22	93
23.23	78
23.24	84
23.25	64
23.26	87
23.27	73
23.28	72
23.29	76
23.3	84
23.31	75
23.32	75
23.33	72
23.34	84
23.35	82
23.36	76
23.37	65
23.38	85
23.39	75
23.4	63
23.41	90
23.42	72
23.43	70
23.44	76
23.45	90
23.46	80
23.47	73
23.48	88
23.49	83
23.5	84
23.51	71
23.52	85
23.53	88
23.54	73
23.55	65
23.56	79
23.57	83
23.58	92
23.59	85
23.6	86
23.61	90
23.62	67
23.63	80
23.64	70
23.65	78
23.66	78
23.67	80
23.68	79
23.69	85
23.7	82
23.71	69
23.72	87
23.73	76
23.74	70
23.75	64
23.76	81
23.77	90
23.78	79
23.79	82
23.8	78
23.81	68
23.82	81
23.83	74
23.84	106
23.85	79
23.86	79
23.87	89
23.88	75
23.89	87
23.9	71
23.91	81
23.92	77
23.93	67
23.94	66
23.95	65
23.96	80
23.97	78
23.98	97
23.99	90
24	81
24.01	81
24.02	89
24.03	66
24.04	79
24.05	75
24.06	74
24.07	63
24.08	73
24.09	84
24.1	98
24.11	63
24.12	87
24.13	60
24.14	94
24.15	79
24.16	94
24.17	88
24.18	79
24.19	81
24.2	75
24.21	83
24.22	86
24.23	64
24.24	81
24.25	97
24.26	74
24.27	74
24.28	82
24.29	80
24.3	74
24.31	93
24.32	80
24.33	75
24.34	74
24.35	88
24.36	91
24.37	73
24.38	90
24.39	71
24.4	64
24.41	77
24.42	86
24.43	96
24.44	94
24.45	84
24.46	75
24.47	76
24.48	69
24.49	97
24.5	84
24.51	97
24.52	73
24.53	54
24.54	89
24.55	78
24.56	75
24.57	79
24.58	82
24.59	84
24.6	84
24.61	88
24.62	87
24.63	71
24.64	75
24.65	72
24.66	82
24.67	82
24.68	73
24.69	82
24.7	88
24.71	60
24.72	85
24.73	82
24.74	74
24.75	75
24.76	84
24.77	84
24.78	106
24.79	79
24.8	79
24.81	73
24.82	83
24.83	71
24.84	83
24.85	98
24.86	78
24.87	85
24.88	76
24.89	101
24.9	82
24.91	80
24.92	82
24.93	79
24.94	81
24.95	79
24.96	86
24.97	71
24.98	83
24.99	74
25	104
25.01	77
25.02	78
25.03	84
25.04	93
25.05	74
25.06	86
25.07	65
25.08	88
25.09	77
25.1	89
25.11	72
25.12	83
25.13	90
25.14	69
25.15	81
25.16	86
25.17	78
25.18	73
25.19	90
25.2	95
25.21	82
25.22	80
25.23	74
25.24	79
25.25	77
25.26	96
25.27	84
25.28	73
25.29	82
25.3	90
25.31	77
25.32	83
25.33	78
25.34	71
25.35	76
25.36	87
25.37	85
25.38	87
25.39	94
25.4	81
25.41	77
25.42	91
25.43	85
25.44	90
25.45	88
25.46	82
25.47	79
25.48	87
25.49	98
25.5	80
25.51	79
25.52	87
25.53	86
25.54	79
25.55	80
25.56	68
25.57	74
25.58	82
25.59	69
25.6	84
25.61	79
25.62	102
25.63	83
25.64	70
25.65	84
25.66	91
25.67	66
25.68	86
25.69	76
25.7	81
25.71	79
25.72	71
25.73	95
25.74	84
25.75	74
25.76	79
25.77	93
25.78	94
25.79	74
25.8	75
25.81	89
25.82	85
25.83	81
25.84	86
25.85	82
25.86	77
25.87	75
25.88	88
25.89	77
25.9	82
25.91	88
25.92	86
25.93	89
25.94	84
25.95	77
25.96	90
25.97	82
25.98	90
25.99	86
26	81
26.01	91
26.02	77
26.03	87
26.04	76
26.05	86
26.06	95
26.07	95
26.08	83
26.09	75
26.1	71
26.11	82
26.12	66
26.13	83
26.14	95
26.15	90
26.16	108
26.17	90
26.18	79
26.19	74
26.2	79
26.21	84
26.22	88
26.23	91
26.24	75
26.25	101
26.26	94
26.27	64
26.28	77
26.29	80
26.3	91
26.31	79
26.32	87
26.33	82
26.34	97
26.35	88
26.36	77
26.37	79
26.38	81
26.39	66
26.4	91
26.41	92
26.42	77
26.43	75
26.44	86
26.45	83
26.46	84
26.47	84
26.48	81
26.49	90
26.5	87
26.51	86
26.52	87
26.53	92
26.54	60
26.55	80
26.56	80
26.57	82
26.58	86
26.59	78
26.6	67
26.61	101
26.62	82
26.63	85
26.64	75
26.65	92
26.66	83
26.67	75
26.68	110
26.69	87
26.7	86
26.71	83
26.72	82
26.73	90
26.74	68
26.75	69
26.76	71
26.77	64
26.78	64
26.79	80
26.8	74
26.81	76
26.82	75
26.83	59
26.84	106
26.85	81
26.86	76
26.87	93
26.88	83
26.89	76
26.9	87
26.91	97
26.92	81
26.93	84
26.94	72
26.95	81
26.96	69
26.97	89
26.98	83
26.99	62
27	79
27.01	69
27.02	86
27.03	88
27.04	93
27.05	102
27.06	83
27.07	90
27.08	88
27.09	94
27.1	72
27.11	90
27.12	64
27.13	84
27.14	80
27.15	87
27.16	90
27.17	84
27.18	58
27.19	63
27.2	95
27.21	72
27.22	79
27.23	86
27.24	58
27.25	86
27.26	66
27.27	74
27.28	87
27.29	86
27.3	88
27.31	104
27.32	64
27.33	68
27.34	81
27.35	56
27.36	80
27.37	102
27.38	88
27.39	76
27.4	79
27.41	63
27.42	58
27.43	72
27.44	91
27.45	77
27.46	94
27.47	88
27.48	62
27.49	81
27.5	100
27.51	67
27.52	85
27.53	73
27.54	86
27.55	80
27.56	81
27.57	70
27.58	76
27.59	64
27.6	88
27.61	80
27.62	70
27.63	53
27.64	93
27.65	91
27.66	92
27.67	76
27.68	74
27.69	89
27.7	76
27.71	88
27.72	78
27.73	87
27.74	72
27.75	85
27.76	84
27.77	85
27.78	88
27.79	81
27.8	78
27.81	78
27.82	73
27.83	83
27.84	77
27.85	78
27.86	74
27.87	78
27.88	68
27.89	70
27.9	74
27.91	82
27.92	95
27.93	74
27.94	67
27.95	86
27.96	83
27.97	56
27.98	88
27.99	80
28	83
28.01	76
28.02	76
28.03	81
28.04	72
28.05	77
28.06	81
28.07	80
28.08	66
28.09	80
28.1	75
28.11	87
28.12	80
28.13	77
28.14	65
28.15	84
28.16	77
28.17	71
28.18	72
28.19	72
28.2	80
28.21	68
28.22	71
28.23	87
28.24	79
28.25	72
28.26	84
28.27	81
28.28	84
28.29	76
28.3	90
28.31	77
28.32	74
28.33	94
28.34	71
28.35	82
28.36	72
28.37	74
28.38	70
28.39	73
28.4	89
28.41	64
28.42	69
28.43	77
28.44	70
28.45	79
28.46	69
28.47	72
28.48	82
28.49	85
28.5	80
28.51	78
28.52	72
28.53	54
28.54	74
28.55	83
28.56	69
28.57	56
28.58	57
28.59	70
28.6	72
28.61	76
28.62	77
28.63	75
28.64	67
28.65	75
28.66	81
28.67	65
28.68	64
28.69	75
28.7	61
28.71	87
28.72	67
28.73	81
28.74	66
28.75	87
28.76	67
28.77	69
28.78	63
28.79	69
28.8	57
28.81	92
28.82	62
28.83	72
28.84	65
28.85	59
28.86	76
28.87	77
28.88	75
28.89	68
28.9	73
28.91	87
28.92	71
28.93	67
28.94	70
28.95	79
28.96	60
28.97	67
28.98	71
28.99	75
29	77
29.01	67
29.02	65
29.03	65
29.04	75
29.05	75
29.06	84
29.07	62
29.08	73
29.09	65
29.1	59
29.11	72
29.12	55
29.13	50
29.14	71
29.15	83
29.16	77
29.17	77
29.18	83
29.19	63
29.2	77
29.21	73
29.22	73
29.23	83
29.24	81
29.25	68
29.26	71
29.27	65
29.28	67
29.29	71
29.3	73
29.31	70
29.32	80
29.33	67
29.34	73
29.35	71
29.36	63
29.37	70
29.38	64
29.39	58
29.4	71
29.41	77
29.42	75
29.43	65
29.44	66
29.45	51
29.46	75
29.47	71
29.48	69
29.49	74
29.5	69
29.51	78
29.52	60
29.53	75
29.54	53
29.55	57
29.56	63
29.57	75
29.58	58
29.59	50
29.6	62
29.61	76
29.62	77
29.63	74
29.64	72
29.65	64
29.66	81
29.67	89
29.68	83
29.69	82
29.7	70
29.71	66
29.72	61
29.73	79
29.74	71
29.75	55
29.76	59
29.77	63
29.78	85
29.79	60
29.8	70
29.81	71
29.82	67
29.83	66
29.84	72
29.85	74
29.86	73
29.87	66
29.88	67
29.89	57
29.9	60
29.91	66
29.92	72
29.93	72
29.94	59
29.95	60
29.96	62
29.97	66
29.98	63
29.99	72
30	53
30.01	73
30.02	68
30.03	68
30.04	62
30.05	61
30.06	54
30.07	61
30.08	65
30.09	55
30.1	57
30.11	67
30.12	63
30.13	54
30.14	52
30.15	55
30.16	61
30.17	67
30.18	58
30.19	73
30.2	54
30.21	68
30.22	65
30.23	68
30.24	75
30.25	65
30.26	52
30.27	52
30.28	65
30.29	56
30.3	52
30.31	61
30.32	76
30.33	62
30.34	48
30.35	60
30.36	58
30.37	69
30.38	60
30.39	63
30.4	78
30.41	57
30.42	65
30.43	66
30.44	60
30.45	65
30.46	55
30.47	68
30.48	62
30.49	67
30.5	80
30.51	70
30.52	64
30.53	72
30.54	67
30.55	70
30.56	88
30.57	63
30.58	66
30.59	65
30.6	64
30.61	50
30.62	59
30.63	59
30.64	57
30.65	62
30.66	76
30.67	60
30.68	69
30.69	66
30.7	64
30.71	57
30.72	75
30.73	58
30.74	61
30.75	57
30.76	57
30.77	60
30.78	66
30.79	68
30.8	68
30.81	55
30.82	55
30.83	65
30.84	66
30.85	59
30.86	59
30.87	77
30.88	76
30.89	57
30.9	54
30.91	69
30.92	58
30.93	63
30.94	69
30.95	68
30.96	60
30.97	68
30.98	66
30.99	63
31	75
31.01	61
31.02	61
31.03	43
31.04	66
31.05	71
31.06	57
31.07	63
31.08	51
31.09	52
31.1	57
31.11	63
31.12	46
31.13	62
31.14	60
31.15	64
31.16	54
31.17	62
31.18	54
31.19	62
31.2	57
31.21	71
31.22	52
31.23	53
31.24	55
31.25	71
31.26	60
31.27	55
31.28	61
31.29	56
31.3	74
31.31	69
31.32	52
31.33	75
31.34	62
31.35	51
31.36	62
31.37	61
31.38	64
31.39	59
31.4	53
31.41	45
31.42	40
31.43	61
31.44	69
31.45	64
31.46	70
31.47	52
31.48	48
31.49	65
31.5	53
31.51	53
31.52	44
31.53	74
31.54	57
31.55	69
31.56	59
31.57	62
31.58	46
31.59	64
31.6	57
31.61	57
31.62	61
31.63	51
31.64	57
31.65	53
31.66	52
31.67	58
31.68	53
31.69	55
31.7	48
31.71	60
31.72	60
31.73	72
31.74	74
31.75	54
31.76	42
31.77	58
31.78	53
31.79	58
31.8	47
31.81	64
31.82	57
31.83	65
31.84	52
31.85	50
31.86	54
31.87	61
31.88	58
31.89	53
31.9	60
31.91	68
31.92	54
31.93	50
31.94	45
31.95	65
31.96	67
31.97	48
31.98	44
31.99	53
32	61
32.01	56
32.02	63
32.03	52
32.04	59
32.05	55
32.06	46
32.07	58
32.08	58
32.09	59
32.1	71
32.11	57
32.12	57
32.13	47
32.14	46
32.15	52
32.16	54
32.17	45
32.18	45
32.19	44
32.2	58
32.21	59
32.22	57
32.23	43
32.24	60
32.25	72
32.26	63
32.27	46
32.28	43
32.29	57
32.3	57
32.31	68
32.32	50
32.33	59
32.34	58
32.35	53
32.36	52
32.37	54
32.38	43
32.39	73
32.4	43
32.41	55
32.42	45
32.43	42
32.44	58
32.45	53
32.46	57
32.47	60
32.48	64
32.49	50
32.5	57
32.51	43
32.52	50
32.53	68
32.54	51
32.55	49
32.56	55
32.57	54
32.58	65
32.59	44
32.6	50
32.61	58
32.62	45
32.63	56
32.64	67
32.65	53
32.66	52
32.67	45
32.68	48
32.69	50
32.7	70
32.71	58
32.72	56
32.73	49
32.74	66
32.75	58
32.76	48
32.77	59
32.78	46
32.79	35
32.8	48
32.81	55
32.82	46
32.83	53
32.84	49
32.85	48
32.86	54
32.87	57
32.88	42
32.89	60
32.9	55
32.91	50
32.92	60
32.93	50
32.94	58
32.95	43
32.96	50
32.97	46
32.98	69
32.99	44
33	53
33.01	48
33.02	62
33.03	53
33.04	55
33.05	53
33.06	47
33.07	38
33.08	52
33.09	50
33.1	66
33.11	56
33.12	60
33.13	48
33.14	59
33.15	52
33.16	53
33.17	39
33.18	43
33.19	37
33.2	47
33.21	52
33.22	64
33.23	51
33.24	48
33.25	53
33.26	52
33.27	43
33.28	50
33.29	56
33.3	61
33.31	52
33.32	49
33.33	44
33.34	46
33.35	58
33.36	48
33.37	57
33.38	47
33.39	41
33.4	42
33.41	60
33.42	52
33.43	36
33.44	53
33.45	58
33.46	41
33.47	40
33.48	51
33.49	53
33.5	60
33.51	49
33.52	66
33.53	59
33.54	40
33.55	46
33.56	51
33.57	48
33.58	75
33.59	45
33.6	46
33.61	59
33.62	52
33.63	53
33.64	45
33.65	61
33.66	47
33.67	56
33.68	53
33.69	53
33.7	52
33.71	43
33.72	50
33.73	42
33.74	41
33.75	50
33.76	50
33.77	55
33.78	57
33.79	47
33.8	53
33.81	38
33.82	46
33.83	45
33.84	41
33.85	58
33.86	59
33.87	44
33.88	50
33.89	53
33.9	52
33.91	51
33.92	35
33.93	54
33.94	39
33.95	42
33.96	46
33.97	40
33.98	57
33.99	49
34	43
34.01	48
34.02	60
34.03	47
34.04	55
34.05	39
34.06	61
34.07	33
34.08	39
34.09	50
34.1	46
34.11	37
34.12	53
34.13	37
34.14	53
34.15	63
34.16	49
34.17	61
34.18	48
34.19	38
34.2	44
34.21	55
34.22	49
34.23	46
34.24	44
34.25	51
34.26	48
34.27	32
34.28	45
34.29	46
34.3	52
34.31	53
34.32	60
34.33	42
34.34	45
34.35	52
34.36	34
34.37	42
34.38	48
34.39	42
34.4	51
34.41	43
34.42	49
34.43	50
34.44	37
34.45	45
34.46	48
34.47	48
34.48	52
34.49	54
34.5	55
34.51	42
34.52	53
34.53	48
34.54	42
34.55	44
34.56	45
34.57	52
34.58	37
34.59	45
34.6	46
34.61	51
34.62	37
34.63	36
34.64	42
34.65	51
34.66	33
34.67	38
34.68	45
34.69	57
34.7	40
34.71	50
34.72	45
34.73	57
34.74	40
34.75	44
34.76	49
34.77	39
34.78	43
34.79	37
34.8	31
34.81	50
34.82	45
34.83	49
34.84	37
34.85	41
34.86	43
34.87	49
34.88	45
34.89	43
34.9	42
34.91	47
34.92	45
34.93	46
34.94	43
34.95	38
34.96	44
34.97	46
34.98	34
34.99	41
35	45
35.01	34
35.02	48
35.03	64
35.04	47
35.05	39
35.06	47
35.07	55
35.08	33
35.09	44
35.1	51
35.11	45
35.12	58
35.13	33
35.14	47
35.15	52
35.16	33
35.17	56
35.18	56
35.19	40
35.2	46
35.21	50
35.22	39
35.23	47
35.24	37
35.25	39
35.26	47
35.27	50
35.28	42
35.29	38
35.3	34
35.31	51
35.32	48
35.33	39
35.34	51
35.35	59
35.36	49
35.37	40
35.38	54
35.39	49
35.4	69
35.41	55
35.42	42
35.43	35
35.44	45
35.45	35
35.46	49
35.47	41
35.48	42
35.49	28
35.5	40
35.51	49
35.52	42
35.53	39
35.54	32
35.55	47
35.56	43
35.57	41
35.58	54
35.59	49
35.6	36
35.61	44
35.62	43
35.63	30
35.64	41
35.65	47
35.66	43
35.67	37
35.68	42
35.69	45
35.7	42
35.71	45
35.72	44
35.73	44
35.74	48
35.75	44
35.76	44
35.77	43
35.78	33
35.79	36
35.8	34
35.81	45
35.82	55
35.83	33
35.84	47
35.85	50
35.86	48
35.87	43
35.88	55
35.89	43
35.9	43
35.91	44
35.92	35
35.93	57
35.94	42
35.95	36
35.96	42
35.97	36
35.98	35
35.99	27
36	37
36.01	40
36.02	50
36.03	45
36.04	48
36.05	38
36.06	40
36.07	40
36.08	52
36.09	38
36.1	45
36.11	41
36.12	38
36.13	45
36.14	35
36.15	43
36.16	46
36.17	41
36.18	53
36.19	53
36.2	49
36.21	48
36.22	41
36.23	38
36.24	31
36.25	40
36.26	40
36.27	40
36.28	58
36.29	41
36.3	46
36.31	48
36.32	35
36.33	38
36.34	39
36.35	40
36.36	44
36.37	38
36.38	40
36.39	41
36.4	40
36.41	41
36.42	46
36.43	46
36.44	43
36.45	51
36.46	46
36.47	28
36.48	46
36.49	27
36.5	44
36.51	36
36.52	37
36.53	36
36.54	51
36.55	44
36.56	40
36.57	44
36.58	40
36.59	46
36.6	40
36.61	50
36.62	44
36.63	43
36.64	44
36.65	49
36.66	39
36.67	44
36.68	27
36.69	40
36.7	36
36.71	48
36.72	44
36.73	44
36.74	40
36.75	34
36.76	35
36.77	43
36.78	43
36.79	40
36.8	33
36.81	49
36.82	44
36.83	33
36.84	43
36.85	45
36.86	48
36.87	40
36.88	34
36.89	36
36.9	37
36.91	42
36.92	46
36.93	36
36.94	51
36.95	38
36.96	53
36.97	36
36.98	48
36.99	43
37	34
37.01	34
37.02	45
37.03	43
37.04	40
37.05	35
37.06	48
37.07	38
37.08	41
37.09	40
37.1	46
37.11	44
37.12	44
37.13	46
37.14	30
37.15	44
37.16	45
37.17	32
37.18	55
37.19	36
37.2	44
37.21	49
37.22	44
37.23	56
37.24	45
37.25	48
37.26	54
37.27	43
37.28	46
37.29	42
37.3	40
37.31	37
37.32	38
37.33	47
37.34	41
37.35	46
37.36	45
37.37	42
37.38	35
37.39	44
37.4	42
37.41	38
37.42	47
37.43	43
37.44	44
37.45	43
37.46	42
37.47	42
37.48	37
37.49	29
37.5	44
37.51	42
37.52	37
37.53	40
37.54	44
37.55	48
37.56	49
37.57	49
37.58	39
37.59	40
37.6	40
37.61	46
37.62	34
37.63	31
37.64	45
37.65	46
37.66	33
37.67	40
37.68	37
37.69	38
37.7	34
37.71	51
37.72	45
37.73	38
37.74	34
37.75	48
37.76	42
37.77	33
37.78	30
37.79	35
37.8	43
37.81	46
37.82	42
37.83	43
37.84	45
37.85	55
37.86	43
37.87	35
37.88	34
37.89	40
37.9	45
37.91	49
37.92	44
37.93	44
37.94	46
37.95	38
37.96	48
37.97	33
37.98	67
37.99	35
38	47
38.01	52
38.02	30
38.03	48
38.04	46
38.05	51
38.06	55
38.07	38
38.08	52
38.09	47
38.1	44
38.11	40
38.12	45
38.13	43
38.14	47
38.15	46
38.16	41
38.17	39
38.18	49
38.19	44
38.2	50
38.21	55
38.22	52
38.23	46
38.24	59
38.25	73
38.26	68
38.27	62
38.28	52
38.29	55
38.3	63
38.31	73
38.32	69
38.33	65
38.34	80
38.35	67
38.36	55
38.37	64
38.38	66
38.39	67
38.4	52
38.41	58
38.42	69
38.43	72
38.44	62
38.45	60
38.46	57
38.47	59
38.48	45
38.49	59
38.5	50
38.51	43
38.52	46
38.53	44
38.54	48
38.55	54
38.56	42
38.57	44
38.58	33
38.59	43
38.6	45
38.61	47
38.62	38
38.63	42
38.64	31
38.65	42
38.66	33
38.67	40
38.68	49
38.69	46
38.7	48
38.71	35
38.72	44
38.73	41
38.74	45
38.75	61
38.76	37
38.77	35
38.78	54
38.79	53
38.8	42
38.81	54
38.82	33
38.83	42
38.84	44
38.85	29
38.86	46
38.87	30
38.88	44
38.89	40
38.9	31
38.91	49
38.92	35
38.93	44
38.94	44
38.95	32
38.96	51
38.97	34
38.98	31
38.99	27
39	32
39.01	40
39.02	48
39.03	49
39.04	47
39.05	40
39.06	32
39.07	41
39.08	43
39.09	30
39.1	31
39.11	57
39.12	38
39.13	47
39.14	42
39.15	43
39.16	45
39.17	52
39.18	34
39.19	41
39.2	41
39.21	38
39.22	38
39.23	40
39.24	46
39.25	33
39.26	42
39.27	34
39.28	33
39.29	33
39.3	39
39.31	46
39.32	45
39.33	41
39.34	25
39.35	40
39.36	38
39.37	44
39.38	35
39.39	27
39.4	45
39.41	42
39.42	51
39.43	43
39.44	38
39.45	55
39.46	42
39.47	32
39.48	46
39.49	50
39.5	46
39.51	41
39.52	34
39.53	38
39.54	43
39.55	47
39.56	28
39.57	31
39.58	44
39.59	46
39.6	43
39.61	42
39.62	30
39.63	39
39.64	44
39.65	35
39.66	38
39.67	48
39.68	28
39.69	38
39.7	30
39.71	36
39.72	50
39.73	36
39.74	40
39.75	58
39.76	37
39.77	33
39.78	45
39.79	39
39.8	34
39.81	45
39.82	31
39.83	42
39.84	37
39.85	34
39.86	50
39.87	40
39.88	41
39.89	33
39.9	43
39.91	44
39.92	48
39.93	31
39.94	40
39.95	47
39.96	32
39.97	40
39.98	25
39.99	39
40	33
40.01	56
40.02	46
40.03	43
40.04	37
40.05	41
40.06	36
40.07	33
40.08	44
40.09	45
40.1	52
40.11	43
40.12	44
40.13	39
40.14	49
40.15	46
40.16	38
40.17	37
40.18	35
40.19	31
40.2	51
40.21	40
40.22	44
40.23	49
40.24	37
40.25	41
40.26	34
40.27	39
40.28	38
40.29	50
40.3	44
40.31	40
40.32	39
40.33	52
40.34	48
40.35	34
40.36	42
40.37	41
40.38	38
40.39	33
40.4	28
40.41	45
40.42	37
40.43	36
40.44	37
40.45	40
40.46	40
40.47	41
40.48	42
40.49	48
40.5	41
40.51	31
40.52	39
40.53	30
40.54	46
40.55	42
40.56	46
40.57	32
40.58	41
40.59	31
40.6	42
40.61	38
40.62	26
40.63	36
40.64	34
40.65	42
40.66	45
40.67	47
40.68	40
40.69	44
40.7	41
40.71	40
40.72	34
40.73	35
40.74	34
40.75	27
40.76	37
40.77	41
40.78	36
40.79	41
40.8	42
40.81	36
40.82	33
40.83	37
40.84	35
40.85	41
40.86	45
40.87	36
40.88	35
40.89	38
40.9	42
40.91	35
40.92	37
40.93	45
40.94	42
40.95	37
40.96	42
40.97	35
40.98	45
40.99	46
41	33
41.01	47
41.02	31
41.03	43
41.04	38
41.05	36
41.06	32
41.07	32
41.08	43
41.09	42
41.1	41
41.11	32
41.12	43
41.13	40
41.14	27
41.15	39
41.16	38
41.17	32
41.18	42
41.19	45
41.2	44
41.21	38
41.22	32
41.23	43
41.24	42
41.25	44
41.26	42
41.27	38
41.28	40
41.29	41
41.3	43
41.31	32
41.32	41
41.33	26
41.34	30
41.35	37
41.36	37
41.37	37
41.38	29
41.39	40
41.4	32
41.41	33
41.42	31
41.43	42
41.44	37
41.45	33
41.46	40
41.47	29
41.48	33
41.49	42
41.5	39
41.51	45
41.52	34
41.53	30
41.54	38
41.55	33
41.56	38
41.57	43
41.58	36
41.59	38
41.6	32
41.61	37
41.62	44
41.63	45
41.64	30
41.65	33
41.66	35
41.67	43
41.68	42
41.69	44
41.7	37
41.71	27
41.72	38
41.73	47
41.74	46
41.75	37
41.76	39
41.77	26
41.78	43
41.79	38
41.8	31
41.81	43
41.82	44
41.83	30
41.84	46
41.85	35
41.86	47
41.87	31
41.88	45
41.89	42
41.9	28
41.91	32
41.92	43
41.93	42
41.94	34
41.95	39
41.96	43
41.97	37
41.98	34
41.99	39
42	35
42.01	30
42.02	41
42.03	38
42.04	44
42.05	34
42.06	40
42.07	41
42.08	43
42.09	37
42.1	27
42.11	45
42.12	40
42.13	46
42.14	38
42.15	39
42.16	31
42.17	40
42.18	35
42.19	43
42.2	32
42.21	32
42.22	32
42.23	29
42.24	50
42.25	38
42.26	28
42.27	37
42.28	40
42.29	40
42.3	25
42.31	39
42.32	34
42.33	31
42.34	36
42.35	45
42.36	41
42.37	37
42.38	42
42.39	31
42.4	28
42.41	46
42.42	29
42.43	40
42.44	26
42.45	37
42.46	39
42.47	34
42.48	31
42.49	35
42.5	36
42.51	36
42.52	43
42.53	32
42.54	41
42.55	42
42.56	27
42.57	49
42.58	40
42.59	40
42.6	43
42.61	37
42.62	56
42.63	38
42.64	33
42.65	29
42.66	35
42.67	34
42.68	33
42.69	38
42.7	39
42.71	35
42.72	37
42.73	30
42.74	41
42.75	34
42.76	41
42.77	38
42.78	35
42.79	39
42.8	37
42.81	41
42.82	36
42.83	43
42.84	38
42.85	48
42.86	31
42.87	43
42.88	36
42.89	37
42.9	33
42.91	32
42.92	40
42.93	37
42.94	39
42.95	38
42.96	50
42.97	45
42.98	46
42.99	34
43	34
43.01	41
43.02	29
43.03	34
43.04	34
43.05	47
43.06	41
43.07	32
43.08	36
43.09	33
43.1	40
43.11	26
43.12	36
43.13	26
43.14	38
43.15	45
43.16	44
43.17	33
43.18	43
43.19	23
43.2	32
43.21	37
43.22	26
43.23	30
43.24	39
43.25	37
43.26	45
43.27	52
43.28	33
43.29	45
43.3	39
43.31	40
43.32	42
43.33	35
43.34	38
43.35	32
43.36	37
43.37	38
43.38	28
43.39	46
43.4	45
43.41	41
43.42	33
43.43	39
43.44	29
43.45	29
43.46	37
43.47	39
43.48	36
43.49	35
43.5	27
43.51	38
43.52	39
43.53	45
43.54	51
43.55	45
43.56	33
43.57	41
43.58	36
43.59	36
43.6	38
43.61	41
43.62	44
43.63	36
43.64	44
43.65	38
43.66	35
43.67	22
43.68	28
43.69	39
43.7	31
43.71	40
43.72	45
43.73	36
43.74	26
43.75	39
43.76	39
43.77	35
43.78	37
43.79	41
43.8	33
43.81	45
43.82	49
43.83	31
43.84	42
43.85	25
43.86	38
43.87	42
43.88	32
43.89	40
43.9	50
43.91	34
43.92	38
43.93	35
43.94	39
43.95	38
43.96	48
43.97	31
43.98	45
43.99	41
44	35
44.01	50
44.02	33
44.03	36
44.04	44
44.05	32
44.06	32
44.07	49
44.08	34
44.09	43
44.1	38
44.11	35
44.12	36
44.13	36
44.14	44
44.15	47
44.16	29
44.17	37
44.18	36
44.19	34
44.2	38
44.21	30
44.22	29
44.23	38
44.24	31
44.25	37
44.26	42
44.27	48
44.28	41
44.29	37
44.3	38
44.31	51
44.32	50
44.33	40
44.34	38
44.35	43
44.36	46
44.37	45
44.38	36
44.39	44
44.4	37
44.41	55
44.42	51
44.43	44
44.44	31
44.45	39
44.46	59
44.47	38
44.48	58
44.49	52
44.5	41
44.51	63
44.52	67
44.53	72
44.54	48
44.55	71
44.56	91
44.57	86
44.58	76
44.59	102
44.6	80
44.61	91
44.62	76
44.63	116
44.64	105
44.65	112
44.66	107
44.67	103
44.68	116
44.69	92
44.7	93
44.71	94
44.72	87
44.73	84
44.74	84
44.75	96
44.76	63
44.77	67
44.78	78
44.79	71
44.8	58
44.81	60
44.82	65
44.83	58
44.84	44
44.85	46
44.86	50
44.87	40
44.88	47
44.89	51
44.9	33
44.91	35
44.92	36
44.93	43
44.94	49
44.95	44
44.96	50
44.97	45
44.98	38
44.99	41
45	45
45.01	30
45.02	48
45.03	37
45.04	33
45.05	37
45.06	37
45.07	37
45.08	40
45.09	33
45.1	38
45.11	47
45.12	35
45.13	29
45.14	35
45.15	31
45.16	37
45.17	36
45.18	28
45.19	29
45.2	46
45.21	36
45.22	35
45.23	40
45.24	45
45.25	35
45.26	41
45.27	31
45.28	55
45.29	36
45.3	38
45.31	32
45.32	36
45.33	35
45.34	41
45.35	28
45.36	29
45.37	38
45.38	34
45.39	40
45.4	30
45.41	35
45.42	25
45.43	40
45.44	28
45.45	37
45.46	39
45.47	36
45.48	43
45.49	34
45.5	40
45.51	26
45.52	31
45.53	42
45.54	46
45.55	31
45.56	45
45.57	26
45.58	36
45.59	35
45.6	29
45.61	30
45.62	23
45.63	33
45.64	35
45.65	32
45.66	48
45.67	39
45.68	37
45.69	35
45.7	32
45.71	29
45.72	39
45.73	30
45.74	32
45.75	46
45.76	36
45.77	42
45.78	34
45.79	46
45.8	36
45.81	29
45.82	39
45.83	42
45.84	38
45.85	32
45.86	42
45.87	51
45.88	46
45.89	32
45.9	36
45.91	42
45.92	41
45.93	34
45.94	47
45.95	33
45.96	28
45.97	32
45.98	19
45.99	38
46	41
46.01	31
46.02	32
46.03	30
46.04	31
46.05	37
46.06	28
46.07	33
46.08	27
46.09	41
46.1	44
46.11	41
46.12	30
46.13	30
46.14	44
46.15	33
46.16	39
46.17	27
46.18	46
46.19	39
46.2	37
46.21	39
46.22	26
46.23	26
46.24	38
46.25	45
46.26	31
46.27	29
46.28	40
46.29	29
46.3	37
46.31	45
46.32	40
46.33	36
46.34	31
46.35	36
46.36	33
46.37	31
46.38	38
46.39	37
46.4	35
46.41	34
46.42	34
46.43	38
46.44	50
46.45	27
46.46	38
46.47	34
46.48	41
46.49	36
46.5	44
46.51	40
46.52	38
46.53	34
46.54	37
46.55	37
46.56	29
46.57	42
46.58	29
46.59	43
46.6	25
46.61	36
46.62	31
46.63	36
46.64	34
46.65	28
46.66	34
46.67	42
46.68	28
46.69	29
46.7	21
46.71	34
46.72	34
46.73	42
46.74	37
46.75	28
46.76	43
46.77	33
46.78	43
46.79	45
46.8	27
46.81	38
46.82	42
46.83	28
46.84	44
46.85	31
46.86	34
46.87	34
46.88	36
46.89	36
46.9	32
46.91	33
46.92	37
46.93	41
46.94	41
46.95	32
46.96	32
46.97	38
46.98	31
46.99	36
47	39
47.01	39
47.02	32
47.03	36
47.04	41
47.05	36
47.06	34
47.07	25
47.08	38
47.09	31
47.1	26
47.11	27
47.12	21
47.13	37
47.14	36
47.15	23
47.16	43
47.17	36
47.18	48
47.19	35
47.2	34
47.21	41
47.22	37
47.23	28
47.24	33
47.25	38
47.26	49
47.27	30
47.28	41
47.29	41
47.3	36
47.31	38
47.32	43
47.33	39
47.34	38
47.35	44
47.36	28
47.37	29
47.38	30
47.39	29
47.4	36
47.41	39
47.42	31
47.43	43
47.44	35
47.45	46
47.46	38
47.47	28
47.48	36
47.49	37
47.5	40
47.51	26
47.52	39
47.53	45
47.54	32
47.55	28
47.56	46
47.57	33
47.58	36
47.59	34
47.6	30
47.61	41
47.62	31
47.63	20
47.64	42
47.65	39
47.66	20
47.67	37
47.68	44
47.69	26
47.7	27
47.71	37
47.72	22
47.73	28
47.74	37
47.75	37
47.76	33
47.77	34
47.78	37
47.79	45
47.8	24
47.81	38
47.82	24
47.83	28
47.84	44
47.85	34
47.86	39
47.87	24
47.88	36
47.89	28
47.9	31
47.91	33
47.92	44
47.93	37
47.94	42
47.95	36
47.96	32
47.97	41
47.98	34
47.99	29
48	36
48.01	35
48.02	27
48.03	43
48.04	38
48.05	35
48.06	34
48.07	27
48.08	38
48.09	36
48.1	34
48.11	39
48.12	39
48.13	39
48.14	35
48.15	34
48.16	41
48.17	45
48.18	40
48.19	34
48.2	31
48.21	35
48.22	31
48.23	32
48.24	41
48.25	30
48.26	28
48.27	33
48.28	36
48.29	31
48.3	27
48.31	32
48.32	37
48.33	28
48.34	40
48.35	41
48.36	40
48.37	40
48.38	38
48.39	45
48.4	26
48.41	37
48.42	45
48.43	33
48.44	33
48.45	37
48.46	38
48.47	29
48.48	38
48.49	39
48.5	45
48.51	38
48.52	23
48.53	30
48.54	35
48.55	38
48.56	34
48.57	33
48.58	31
48.59	36
48.6	27
48.61	44
48.62	29
48.63	31
48.64	43
48.65	35
48.66	39
48.67	37
48.68	32
48.69	30
48.7	31
48.71	40
48.72	31
48.73	35
48.74	27
48.75	33
48.76	43
48.77	39
48.78	49
48.79	27
48.8	40
48.81	36
48.82	47
48.83	39
48.84	36
48.85	38
48.86	34
48.87	34
48.88	27
48.89	39
48.9	38
48.91	31
48.92	29
48.93	25
48.94	40
48.95	44
48.96	35
48.97	34
48.98	46
48.99	38
49	39
49.01	38
49.02	41
49.03	38
49.04	33
49.05	34
49.06	37
49.07	36
49.08	35
49.09	35
49.1	42
49.11	35
49.12	42
49.13	36
49.14	34
49.15	27
49.16	28
49.17	29
49.18	44
49.19	47
49.2	42
49.21	31
49.22	35
49.23	27
49.24	39
49.25	41
49.26	32
49.27	52
49.28	39
49.29	31
49.3	38
49.31	34
49.32	36
49.33	37
49.34	39
49.35	48
49.36	29
49.37	45
49.38	32
49.39	32
49.4	22
49.41	32
49.42	45
49.43	50
49.44	40
49.45	25
49.46	33
49.47	39
49.48	29
49.49	40
49.5	25
49.51	36
49.52	32
49.53	43
49.54	34
49.55	30
49.56	29
49.57	37
49.58	32
49.59	39
49.6	30
49.61	37
49.62	29
49.63	27
49.64	30
49.65	49
49.66	28
49.67	31
49.68	36
49.69	37
49.7	37
49.71	37
49.72	29
49.73	38
49.74	36
49.75	33
49.76	35
49.77	35
49.78	41
49.79	29
49.8	36
49.81	48
49.82	40
49.83	34
49.84	28
49.85	46
49.86	39
49.87	32
49.88	33
49.89	39
49.9	35
49.91	38
49.92	24
49.93	38
49.94	29
49.95	30
49.96	29
49.97	21
49.98	31
49.99	40
50	50
50.01	35
50.02	21
50.03	25
50.04	37
50.05	33
50.06	26
50.07	34
50.08	28
50.09	48
50.1	40
50.11	41
50.12	47
50.13	44
50.14	32
50.15	30
50.16	43
50.17	26
50.18	37
50.19	39
50.2	36
50.21	33
50.22	34
50.23	36
50.24	36
50.25	46
50.26	24
50.27	31
50.28	51
50.29	27
50.3	40
50.31	35
50.32	27
50.33	26
50.34	28
50.35	31
50.36	37
50.37	38
50.38	45
50.39	34
50.4	33
50.41	45
50.42	33
50.43	40
50.44	25
50.45	29
50.46	32
50.47	33
50.48	34
50.49	33
50.5	38
50.51	37
50.52	28
50.53	39
50.54	35
50.55	40
50.56	37
50.57	43
50.58	39
50.59	37
50.6	33
50.61	47
50.62	34
50.63	35
50.64	32
50.65	48
50.66	32
50.67	29
50.68	29
50.69	28
50.7	36
50.71	34
50.72	42
50.73	42
50.74	39
50.75	40
50.76	28
50.77	42
50.78	44
50.79	36
50.8	36
50.81	37
50.82	46
50.83	39
50.84	32
50.85	36
50.86	29
50.87	45
50.88	33
50.89	34
50.9	40
50.91	49
50.92	42
50.93	26
50.94	38
50.95	28
50.96	39
50.97	48
50.98	33
50.99	41
51	39
51.01	29
51.02	43
51.03	39
51.04	37
51.05	40
51.06	45
51.07	33
51.08	34
51.09	35
51.1	35
51.11	29
51.12	23
51.13	29
51.14	32
51.15	28
51.16	46
51.17	31
51.18	35
51.19	34
51.2	37
51.21	38
51.22	36
51.23	36
51.24	30
51.25	42
51.26	36
51.27	39
51.28	30
51.29	28
51.3	37
51.31	39
51.32	41
51.33	41
51.34	41
51.35	39
51.36	30
51.37	41
51.38	34
51.39	36
51.4	34
51.41	34
51.42	26
51.43	30
51.44	35
51.45	29
51.46	34
51.47	41
51.48	27
51.49	25
51.5	39
51.51	38
51.52	37
51.53	33
51.54	27
51.55	42
51.56	30
51.57	34
51.58	40
51.59	34
51.6	23
51.61	39
51.62	41
51.63	33
51.64	39
51.65	26
51.66	31
51.67	29
51.68	29
51.69	21
51.7	31
51.71	32
51.72	32
51.73	31
51.74	32
51.75	41
51.76	33
51.77	37
51.78	39
51.79	30
51.8	33
51.81	35
51.82	39
51.83	37
51.84	41
51.85	32
51.86	32
51.87	32
51.88	45
51.89	34
51.9	37
51.91	43
51.92	29
51.93	36
51.94	28
51.95	25
51.96	34
51.97	33
51.98	31
51.99	35
52	42
52.01	37
52.02	28
52.03	30
52.04	31
52.05	23
52.06	38
52.07	34
52.08	34
52.09	35
52.1	31
52.11	40
52.12	36
52.13	26
52.14	37
52.15	40
52.16	28
52.17	35
52.18	34
52.19	32
52.2	38
52.21	31
52.22	36
52.23	42
52.24	33
52.25	35
52.26	38
52.27	36
52.28	34
52.29	50
52.3	37
52.31	35
52.32	30
52.33	44
52.34	32
52.35	37
52.36	35
52.37	28
52.38	35
52.39	46
52.4	44
52.41	41
52.42	40
52.43	33
52.44	31
52.45	33
52.46	36
52.47	32
52.48	27
52.49	33
52.5	31
52.51	31
52.52	39
52.53	31
52.54	45
52.55	36
52.56	38
52.57	32
52.58	27
52.59	31
52.6	52
52.61	33
52.62	42
52.63	32
52.64	32
52.65	35
52.66	36
52.67	30
52.68	32
52.69	32
52.7	50
52.71	34
52.72	30
52.73	33
52.74	32
52.75	39
52.76	42
52.77	20
52.78	43
52.79	42
52.8	38
52.81	37
52.82	39
52.83	44
52.84	27
52.85	36
52.86	38
52.87	36
52.88	35
52.89	30
52.9	38
52.91	34
52.92	35
52.93	27
52.94	38
52.95	43
52.96	36
52.97	38
52.98	34
52.99	31
53	37
53.01	33
53.02	35
53.03	41
53.04	37
53.05	34
53.06	32
53.07	36
53.08	47
53.09	41
53.1	34
53.11	32
53.12	29
53.13	31
53.14	30
53.15	38
53.16	37
53.17	27
53.18	31
53.19	40
53.2	30
53.21	36
53.22	41
53.23	32
53.24	40
53.25	31
53.26	40
53.27	40
53.28	32
53.29	44
53.3	36
53.31	40
53.32	38
53.33	39
53.34	34
53.35	39
53.36	46
53.37	39
53.38	31
53.39	47
53.4	33
53.41	46
53.42	32
53.43	40
53.44	28
53.45	32
53.46	35
53.47	33
53.48	36
53.49	29
53.5	42
53.51	35
53.52	26
53.53	33
53.54	37
53.55	40
53.56	32
53.57	31
53.58	29
53.59	40
53.6	31
53.61	39
53.62	37
53.63	34
53.64	24
53.65	32
53.66	37
53.67	38
53.68	44
53.69	41
53.7	38
53.71	44
53.72	30
53.73	35
53.74	40
53.75	32
53.76	51
53.77	42
53.78	44
53.79	41
53.8	35
53.81	30
53.82	35
53.83	46
53.84	37
53.85	32
53.86	27
53.87	27
53.88	33
53.89	28
53.9	44
53.91	29
53.92	45
53.93	42
53.94	35
53.95	24
53.96	24
53.97	37
53.98	32
53.99	25
54	30
54.01	24
54.02	30
54.03	30
54.04	37
54.05	35
54.06	29
54.07	47
54.08	36
54.09	36
54.1	38
54.11	39
54.12	39
54.13	45
54.14	38
54.15	28
54.16	45
54.17	40
54.18	32
54.19	35
54.2	39
54.21	45
54.22	32
54.23	51
54.24	40
54.25	31
54.26	34
54.27	22
54.28	31
54.29	27
54.3	36
54.31	36
54.32	38
54.33	36
54.34	34
54.35	23
54.36	42
54.37	43
54.38	36
54.39	41
54.4	30
54.41	35
54.42	32
54.43	32
54.44	33
54.45	39
54.46	38
54.47	29
54.48	36
54.49	39
54.5	42
54.51	31
54.52	46
54.53	40
54.54	40
54.55	39
54.56	30
54.57	33
54.58	35
54.59	37
54.6	28
54.61	34
54.62	41
54.63	40
54.64	33
54.65	45
54.66	27
54.67	62
54.68	33
54.69	40
54.7	36
54.71	37
54.72	33
54.73	34
54.74	45
54.75	39
54.76	34
54.77	38
54.78	36
54.79	30
54.8	36
54.81	36
54.82	34
54.83	45
54.84	28
54.85	36
54.86	35
54.87	22
54.88	34
54.89	46
54.9	28
54.91	30
54.92	38
54.93	38
54.94	31
54.95	37
54.96	30
54.97	30
54.98	34
54.99	37
55	29
55.01	30
55.02	30
55.03	43
55.04	48
55.05	30
55.06	37
55.07	39
55.08	35
55.09	26
55.1	41
55.11	40
55.12	33
55.13	37
55.14	33
55.15	21
55.16	40
55.17	31
55.18	30
55.19	41
55.2	36
55.21	36
55.22	33
55.23	37
55.24	33
55.25	34
55.26	37
55.27	34
55.28	28
55.29	41
55.3	36
55.31	38
55.32	34
55.33	31
55.34	38
55.35	33
55.36	35
55.37	39
55.38	47
55.39	36
55.4	36
55.41	31
55.42	32
55.43	30
55.44	37
55.45	32
55.46	46
55.47	43
55.48	33
55.49	45
55.5	35
55.51	51
55.52	26
55.53	31
55.54	22
55.55	31
55.56	39
55.57	29
55.58	35
55.59	36
55.6	30
55.61	23
55.62	30
55.63	36
55.64	38
55.65	41
55.66	24
55.67	36
55.68	33
55.69	44
55.7	34
55.71	25
55.72	28
55.73	31
55.74	42
55.75	30
55.76	33
55.77	39
55.78	48
55.79	43
55.8	39
55.81	44
55.82	30
55.83	28
55.84	37
55.85	31
55.86	37
55.87	33
55.88	40
55.89	34
55.9	33
55.91	30
55.92	34
55.93	45
55.94	43
55.95	30
55.96	32
55.97	37
55.98	36
55.99	24
56	30
56.01	39
56.02	32
56.03	38
56.04	29
56.05	24
56.06	37
56.07	25
56.08	35
56.09	35
56.1	30
56.11	35
56.12	42
56.13	22
56.14	37
56.15	39
56.16	39
56.17	34
56.18	39
56.19	39
56.2	32
56.21	40
56.22	27
56.23	29
56.24	34
56.25	30
56.26	20
56.27	39
56.28	35
56.29	27
56.3	47
56.31	30
56.32	36
56.33	36
56.34	42
56.35	31
56.36	38
56.37	40
56.38	38
56.39	32
56.4	34
56.41	34
56.42	44
56.43	37
56.44	29
56.45	44
56.46	42
56.47	30
56.48	29
56.49	29
56.5	30
56.51	37
56.52	43
56.53	42
56.54	32
56.55	48
56.56	34
56.57	36
56.58	28
56.59	54
56.6	31
56.61	36
56.62	37
56.63	44
56.64	28
56.65	33
56.66	39
56.67	31
56.68	31
56.69	37
56.7	29
56.71	41
56.72	32
56.73	36
56.74	36
56.75	28
56.76	41
56.77	31
56.78	33
56.79	27
56.8	30
56.81	43
56.82	31
56.83	47
56.84	35
56.85	36
56.86	38
56.87	36
56.88	35
56.89	31
56.9	34
56.91	37
56.92	41
56.93	37
56.94	24
56.95	35
56.96	33
56.97	41
56.98	34
56.99	41
57	51
57.01	34
57.02	27
57.03	41
57.04	32
57.05	25
57.06	40
57.07	30
57.08	39
57.09	34
57.1	33
57.11	42
57.12	29
57.13	40
57.14	38
57.15	28
57.16	37
57.17	25
57.18	29
57.19	37
57.2	32
57.21	33
57.22	35
57.23	35
57.24	33
57.25	45
57.26	46
57.27	40
57.28	36
57.29	31
57.3	29
57.31	34
57.32	30
57.33	44
57.34	37
57.35	31
57.36	34
57.37	30
57.38	28
57.39	31
57.4	37
57.41	35
57.42	37
57.43	39
57.44	48
57.45	42
57.46	30
57.47	33
57.48	35
57.49	43
57.5	32
57.51	47
57.52	41
57.53	36
57.54	50
57.55	41
57.56	28
57.57	41
57.58	30
57.59	33
57.6	44
57.61	23
57.62	41
57.63	31
57.64	45
57.65	33
57.66	29
57.67	34
57.68	36
57.69	37
57.7	35
57.71	36
57.72	38
57.73	28
57.74	40
57.75	38
57.76	39
57.77	41
57.78	26
57.79	38
57.8	35
57.81	39
57.82	33
57.83	31
57.84	34
57.85	37
57.86	39
57.87	29
57.88	27
57.89	34
57.9	30
57.91	38
57.92	41
57.93	43
57.94	37
57.95	32
57.96	45
57.97	26
57.98	36
57.99	41
58	31
58.01	30
58.02	40
58.03	36
58.04	39
58.05	37
58.06	26
58.07	31
58.08	37
58.09	39
58.1	49
58.11	29
58.12	37
58.13	31
58.14	33
58.15	33
58.16	34
58.17	29
58.18	35
58.19	29
58.2	51
58.21	36
58.22	39
58.23	37
58.24	35
58.25	51
58.26	38
58.27	28
58.28	34
58.29	40
58.3	36
58.31	35
58.32	38
58.33	36
58.34	32
58.35	36
58.36	23
58.37	43
58.38	36
58.39	28
58.4	35
58.41	44
58.42	24
58.43	35
58.44	31
58.45	26
58.46	21
58.47	40
58.48	36
58.49	35
58.5	29
58.51	36
58.52	31
58.53	37
58.54	38
58.55	28
58.56	24
58.57	35
58.58	30
58.59	20
58.6	25
58.61	33
58.62	39
58.63	26
58.64	30
58.65	28
58.66	27
58.67	33
58.68	28
58.69	26
58.7	36
58.71	36
58.72	38
58.73	33
58.74	45
58.75	26
58.76	30
58.77	40
58.78	37
58.79	35
58.8	34
58.81	40
58.82	41
58.83	34
58.84	37
58.85	32
58.86	36
58.87	24
58.88	38
58.89	33
58.9	32
58.91	35
58.92	35
58.93	28
58.94	40
58.95	39
58.96	45
58.97	30
58.98	40
58.99	29
59	37
59.01	33
59.02	26
59.03	35
59.04	39
59.05	40
59.06	34
59.07	20
59.08	29
59.09	29
59.1	35
59.11	28
59.12	31
59.13	39
59.14	30
59.15	27
59.16	36
59.17	40
59.18	35
59.19	38
59.2	30
59.21	38
59.22	37
59.23	31
59.24	22
59.25	31
59.26	24
59.27	40
59.28	37
59.29	43
59.3	35
59.31	32
59.32	30
59.33	37
59.34	27
59.35	31
59.36	29
59.37	41
59.38	26
59.39	28
59.4	34
59.41	32
59.42	35
59.43	43
59.44	28
59.45	41
59.46	27
59.47	34
59.48	33
59.49	29
59.5	32
59.51	33
59.52	33
59.53	32
59.54	28
59.55	22
59.56	29
59.57	24
59.58	32
59.59	38
59.6	49
59.61	29
59.62	28
59.63	45
59.64	21
59.65	38
59.66	36
59.67	34
59.68	40
59.69	31
59.7	29
59.71	37
59.72	27
59.73	39
59.74	30
59.75	32
59.76	39
59.77	35
59.78	32
59.79	32
59.8	27
59.81	30
59.82	34
59.83	41
59.84	30
59.85	21
59.86	38
59.87	31
59.88	28
59.89	40
59.9	32
59.91	23
59.92	28
59.93	27
59.94	28
59.95	41
59.96	30
59.97	38
59.98	46
59.99	35
60	46
60.01	34
60.02	27
60.03	35
60.04	39
60.05	44
60.06	35
60.07	28
60.08	35
60.09	34
60.1	38
60.11	36
60.12	40
60.13	42
60.14	37
60.15	44
60.16	32
60.17	44
60.18	31
60.19	28
60.2	35
60.21	30
60.22	28
60.23	30
60.24	26
60.25	27
60.26	27
60.27	40
60.28	39
60.29	37
60.3	35
60.31	24
60.32	30
60.33	28
60.34	32
60.35	33
60.36	38
60.37	32
60.38	39
60.39	52
60.4	26
60.41	36
60.42	28
60.43	34
60.44	39
60.45	38
60.46	26
60.47	34
60.48	35
60.49	34
60.5	30
60.51	42
60.52	26
60.53	37
60.54	37
60.55	34
60.56	28
60.57	30
60.58	39
60.59	31
60.6	30
60.61	35
60.62	32
60.63	34
60.64	35
60.65	37
60.66	29
60.67	34
60.68	28
60.69	27
60.7	33
60.71	29
60.72	26
60.73	28
60.74	31
60.75	34
60.76	31
60.77	35
60.78	32
60.79	35
60.8	30
60.81	32
60.82	38
60.83	37
60.84	37
60.85	24
60.86	30
60.87	34
60.88	26
60.89	24
60.9	31
60.91	38
60.92	34
60.93	32
60.94	26
60.95	37
60.96	34
60.97	40
60.98	33
60.99	33
61	34
61.01	26
61.02	50
61.03	37
61.04	37
61.05	35
61.06	35
61.07	36
61.08	34
61.09	34
61.1	42
61.11	29
61.12	21
61.13	31
61.14	23
61.15	32
61.16	36
61.17	37
61.18	35
61.19	25
61.2	33
61.21	43
61.22	36
61.23	38
61.24	28
61.25	35
61.26	23
61.27	34
61.28	34
61.29	35
61.3	28
61.31	32
61.32	31
61.33	32
61.34	34
61.35	35
61.36	31
61.37	29
61.38	33
61.39	32
61.4	41
61.41	28
61.42	33
61.43	33
61.44	29
61.45	35
61.46	39
61.47	29
61.48	32
61.49	38
61.5	36
61.51	35
61.52	33
61.53	29
61.54	31
61.55	26
61.56	28
61.57	35
61.58	29
61.59	46
61.6	38
61.61	29
61.62	34
61.63	33
61.64	30
61.65	38
61.66	35
61.67	35
61.68	34
61.69	34
61.7	32
61.71	34
61.72	27
61.73	28
61.74	33
61.75	31
61.76	31
61.77	21
61.78	39
61.79	25
61.8	31
61.81	31
61.82	31
61.83	28
61.84	46
61.85	40
61.86	28
61.87	33
61.88	39
61.89	32
61.9	38
61.91	21
61.92	32
61.93	31
61.94	19
61.95	39
61.96	35
61.97	38
61.98	27
61.99	30
62	23
62.01	27
62.02	35
62.03	35
62.04	28
62.05	23
62.06	38
62.07	36
62.08	29
62.09	30
62.1	36
62.11	28
62.12	33
62.13	29
62.14	32
62.15	24
62.16	35
62.17	39
62.18	27
62.19	34
62.2	37
62.21	43
62.22	31
62.23	31
62.24	28
62.25	27
62.26	32
62.27	29
62.28	24
62.29	41
62.3	31
62.31	32
62.32	26
62.33	41
62.34	30
62.35	39
62.36	38
62.37	35
62.38	20
62.39	24
62.4	33
62.41	27
62.42	28
62.43	33
62.44	33
62.45	36
62.46	31
62.47	28
62.48	31
62.49	30
62.5	29
62.51	33
62.52	23
62.53	23
62.54	31
62.55	22
62.56	33
62.57	25
62.58	24
62.59	32
62.6	36
62.61	36
62.62	44
62.63	33
62.64	28
62.65	39
62.66	26
62.67	21
62.68	33
62.69	28
62.7	47
62.71	26
62.72	34
62.73	37
62.74	33
62.75	38
62.76	33
62.77	37
62.78	22
62.79	25
62.8	32
62.81	30
62.82	43
62.83	40
62.84	25
62.85	20
62.86	32
62.87	23
62.88	20
62.89	25
62.9	31
62.91	28
62.92	33
62.93	39
62.94	29
62.95	33
62.96	24
62.97	28
62.98	21
62.99	28
63	33
63.01	23
63.02	32
63.03	36
63.04	26
63.05	27
63.06	20
63.07	31
63.08	28
63.09	45
63.1	31
63.11	25
63.12	37
63.13	37
63.14	27
63.15	31
63.16	26
63.17	31
63.18	25
63.19	34
63.2	30
63.21	32
63.22	32
63.23	33
63.24	36
63.25	30
63.26	40
63.27	30
63.28	32
63.29	29
63.3	27
63.31	44
63.32	24
63.33	24
63.34	29
63.35	26
63.36	42
63.37	36
63.38	23
63.39	42
63.4	28
63.41	36
63.42	31
63.43	27
63.44	25
63.45	26
63.46	27
63.47	17
63.48	22
63.49	27
63.5	25
63.51	32
63.52	32
63.53	27
63.54	28
63.55	19
63.56	31
63.57	31
63.58	31
63.59	37
63.6	31
63.61	25
63.62	34
63.63	28
63.64	38
63.65	31
63.66	49
63.67	21
63.68	32
63.69	21
63.7	25
63.71	28
63.72	28
63.73	35
63.74	37
63.75	25
63.76	27
63.77	30
63.78	30
63.79	39
63.8	42
63.81	24
63.82	35
63.83	25
63.84	27
63.85	37
63.86	28
63.87	33
63.88	26
63.89	31
63.9	31
63.91	29
63.92	37
63.93	25
63.94	15
63.95	29
63.96	24
63.97	31
63.98	32
63.99	26
64	34
64.01	34
64.02	27
64.03	24
64.04	31
64.05	30
64.06	36
64.07	28
64.08	29
64.09	27
64.1	34
64.11	33
64.12	28
64.13	32
64.14	29
64.15	30
64.16	27
64.17	30
64.18	30
64.19	31
64.2	30
64.21	29
64.22	23
64.23	32
64.24	24
64.25	33
64.26	31
64.27	27
64.28	31
64.29	30
64.3	22
64.31	30
64.32	34
64.33	30
64.34	27
64.35	34
64.36	34
64.37	32
64.38	19
64.39	29
64.4	35
64.41	26
64.42	24
64.43	35
64.44	27
64.45	20
64.46	27
64.47	29
64.48	29
64.49	31
64.5	37
64.51	29
64.52	28
64.53	29
64.54	34
64.55	37
64.56	26
64.57	33
64.58	31
64.59	32
64.6	35
64.61	23
64.62	33
64.63	45
64.64	29
64.65	26
64.66	24
64.67	27
64.68	36
64.69	29
64.7	28
64.71	40
64.72	38
64.73	25
64.74	27
64.75	36
64.76	31
64.77	36
64.78	19
64.79	29
64.8	36
64.81	43
64.82	33
64.83	41
64.84	28
64.85	25
64.86	38
64.87	31
64.88	23
64.89	31
64.9	30
64.91	30
64.92	37
64.93	29
64.94	33
64.95	33
64.96	35
64.97	40
64.98	23
64.99	38
65	30
65.01	42
65.02	27
65.03	33
65.04	32
65.05	41
65.06	33
65.07	35
65.08	26
65.09	32
65.1	26
65.11	36
65.12	27
65.13	31
65.14	42
65.15	28
65.16	33
65.17	38
65.18	26
65.19	36
65.2	29
65.21	31
65.22	28
65.23	37
65.24	36
65.25	29
65.26	35
65.27	22
65.28	40
65.29	29
65.3	34
65.31	25
65.32	31
65.33	36
65.34	27
65.35	34
65.36	31
65.37	31
65.38	30
65.39	30
65.4	24
65.41	25
65.42	26
65.43	28
65.44	39
65.45	25
65.46	34
65.47	33
65.48	37
65.49	28
65.5	25
65.51	26
65.52	37
65.53	26
65.54	37
65.55	43
65.56	30
65.57	28
65.58	38
65.59	29
65.6	29
65.61	36
65.62	23
65.63	29
65.64	31
65.65	23
65.66	23
65.67	31
65.68	25
65.69	31
65.7	31
65.71	30
65.72	32
65.73	24
65.74	27
65.75	27
65.76	30
65.77	25
65.78	28
65.79	26
65.8	35
65.81	31
65.82	20
65.83	24
65.84	29
65.85	19
65.86	19
65.87	28
65.88	26
65.89	30
65.9	19
65.91	29
65.92	31
65.93	36
65.94	27
65.95	21
65.96	32
65.97	30
65.98	27
65.99	33
66	25
66.01	32
66.02	25
66.03	24
66.04	28
66.05	34
66.06	21
66.07	32
66.08	25
66.09	31
66.1	26
66.11	29
66.12	31
66.13	26
66.14	22
66.15	31
66.16	27
66.17	33
66.18	27
66.19	34
66.2	28
66.21	37
66.22	28
66.23	32
66.24	27
66.25	27
66.26	29
66.27	31
66.28	29
66.29	23
66.3	28
66.31	33
66.32	34
66.33	35
66.34	23
66.35	36
66.36	27
66.37	23
66.38	25
66.39	24
66.4	36
66.41	35
66.42	31
66.43	31
66.44	32
66.45	33
66.46	33
66.47	33
66.48	27
66.49	38
66.5	26
66.51	26
66.52	38
66.53	19
66.54	25
66.55	37
66.56	33
66.57	31
66.58	32
66.59	29
66.6	35
66.61	25
66.62	33
66.63	29
66.64	35
66.65	37
66.66	23
66.67	29
66.68	21
66.69	26
66.7	19
66.71	32
66.72	28
66.73	21
66.74	38
66.75	32
66.76	23
66.77	35
66.78	32
66.79	23
66.8	22
66.81	25
66.82	23
66.83	27
66.84	21
66.85	30
66.86	27
66.87	35
66.88	30
66.89	34
66.9	26
66.91	29
66.92	29
66.93	30
66.94	33
66.95	19
66.96	24
66.97	32
66.98	30
66.99	29
67	35
67.01	20
67.02	22
67.03	35
67.04	24
67.05	32
67.06	30
67.07	29
67.08	29
67.09	32
67.1	22
67.11	33
67.12	20
67.13	21
67.14	27
67.15	32
67.16	32
67.17	24
67.18	36
67.19	21
67.2	19
67.21	33
67.22	31
67.23	27
67.24	31
67.25	25
67.26	26
67.27	22
67.28	32
67.29	23
67.3	36
67.31	23
67.32	30
67.33	32
67.34	30
67.35	26
67.36	38
67.37	21
67.38	40
67.39	28
67.4	28
67.41	23
67.42	21
67.43	25
67.44	27
67.45	36
67.46	30
67.47	40
67.48	29
67.49	24
67.5	27
67.51	34
67.52	22
67.53	28
67.54	39
67.55	28
67.56	22
67.57	31
67.58	29
67.59	28
67.6	37
67.61	33
67.62	29
67.63	31
67.64	27
67.65	30
67.66	23
67.67	27
67.68	33
67.69	32
67.7	27
67.71	25
67.72	17
67.73	35
67.74	25
67.75	25
67.76	29
67.77	27
67.78	33
67.79	23
67.8	34
67.81	34
67.82	22
67.83	27
67.84	33
67.85	20
67.86	21
67.87	19
67.88	28
67.89	22
67.9	32
67.91	30
67.92	30
67.93	25
67.94	24
67.95	38
67.96	24
67.97	31
67.98	22
67.99	34
68	50
68.01	27
68.02	41
68.03	29
68.04	28
68.05	29
68.06	26
68.07	23
68.08	30
68.09	24
68.1	26
68.11	31
68.12	26
68.13	24
68.14	28
68.15	34
68.16	30
68.17	29
68.18	20
68.19	24
68.2	31
68.21	32
68.22	18
68.23	31
68.24	28
68.25	27
68.26	33
68.27	24
68.28	31
68.29	31
68.3	17
68.31	21
68.32	22
68.33	31
68.34	24
68.35	28
68.36	25
68.37	28
68.38	31
68.39	23
68.4	36
68.41	23
68.42	19
68.43	25
68.44	25
68.45	16
68.46	22
68.47	20
68.48	21
68.49	19
68.5	21
68.51	24
68.52	27
68.53	25
68.54	23
68.55	26
68.56	27
68.57	35
68.58	13
68.59	30
68.6	21
68.61	33
68.62	28
68.63	23
68.64	23
68.65	31
68.66	17
68.67	33
68.68	24
68.69	36
68.7	26
68.71	25
68.72	29
68.73	20
68.74	29
68.75	29
68.76	28
68.77	24
68.78	15
68.79	36
68.8	23
68.81	39
68.82	26
68.83	25
68.84	29
68.85	27
68.86	21
68.87	23
68.88	30
68.89	28
68.9	24
68.91	30
68.92	23
68.93	28
68.94	20
68.95	30
68.96	25
68.97	24
68.98	24
68.99	20
69	25
69.01	30
69.02	21
69.03	27
69.04	27
69.05	23
69.06	39
69.07	29
69.08	27
69.09	24
69.1	38
69.11	26
69.12	30
69.13	26
69.14	31
69.15	21
69.16	31
69.17	24
69.18	27
69.19	25
69.2	22
69.21	27
69.22	24
69.23	29
69.24	25
69.25	28
69.26	29
69.27	28
69.28	25
69.29	21
69.3	26
69.31	31
69.32	25
69.33	29
69.34	26
69.35	26
69.36	37
69.37	25
69.38	28
69.39	30
69.4	20
69.41	26
69.42	31
69.43	24
69.44	22
69.45	34
69.46	31
69.47	32
69.48	25
69.49	29
69.5	22
69.51	29
69.52	24
69.53	32
69.54	24
69.55	35
69.56	28
69.57	35
69.58	32
69.59	35
69.6	16
69.61	22
69.62	26
69.63	29
69.64	21
69.65	33
69.66	27
69.67	37
69.68	22
69.69	29
69.7	23
69.71	27
69.72	22
69.73	23
69.74	20
69.75	31
69.76	23
69.77	26
69.78	35
69.79	28
69.8	23
69.81	20
69.82	33
69.83	30
69.84	26
69.85	25
69.86	25
69.87	16
69.88	27
69.89	30
69.9	23
69.91	29
69.92	33
69.93	32
69.94	23
69.95	31
69.96	29
69.97	17
69.98	26
69.99	32
70	28
70.01	29
70.02	29
70.03	32
70.04	27
70.05	28
70.06	15
70.07	27
70.08	17
70.09	25
70.1	35
70.11	20
70.12	23
70.13	23
70.14	29
70.15	27
70.16	22
70.17	30
70.18	23
70.19	27
70.2	31
70.21	22
70.22	24
70.23	23
70.24	31
70.25	23
70.26	18
70.27	26
70.28	28
70.29	30
70.3	31
70.31	29
70.32	22
70.33	29
70.34	39
70.35	25
70.36	32
70.37	28
70.38	22
70.39	27
70.4	26
70.41	28
70.42	25
70.43	26
70.44	24
70.45	17
70.46	18
70.47	37
70.48	28
70.49	19
70.5	23
70.51	31
70.52	23
70.53	27
70.54	29
70.55	20
70.56	23
70.57	24
70.58	24
70.59	37
70.6	23
70.61	30
70.62	22
70.63	22
70.64	21
70.65	32
70.66	25
70.67	29
70.68	26
70.69	25
70.7	24
70.71	38
70.72	24
70.73	25
70.74	29
70.75	23
70.76	23
70.77	25
70.78	33
70.79	30
70.8	28
70.81	30
70.82	16
70.83	24
70.84	22
70.85	29
70.86	28
70.87	17
70.88	27
70.89	25
70.9	29
70.91	34
70.92	25
70.93	22
70.94	29
70.95	25
70.96	33
70.97	27
70.98	28
70.99	26
71	29
71.01	28
71.02	24
71.03	27
71.04	26
71.05	40
71.06	19
71.07	30
71.08	24
71.09	20
71.1	28
71.11	25
71.12	23
71.13	23
71.14	34
71.15	31
71.16	18
71.17	23
71.18	34
71.19	29
71.2	16
71.21	27
71.22	28
71.23	32
71.24	27
71.25	22
71.26	21
71.27	29
71.28	29
71.29	27
71.3	25
71.31	25
71.32	35
71.33	24
71.34	32
71.35	30
71.36	24
71.37	23
71.38	22
71.39	29
71.4	25
71.41	20
71.42	25
71.43	45
71.44	27
71.45	33
71.46	18
71.47	24
71.48	30
71.49	26
71.5	30
71.51	28
71.52	24
71.53	34
71.54	29
71.55	32
71.56	24
71.57	22
71.58	21
71.59	36
71.6	26
71.61	19
71.62	30
71.63	28
71.64	30
71.65	26
71.66	30
71.67	20
71.68	32
71.69	38
71.7	22
71.71	26
71.72	28
71.73	25
71.74	25
71.75	36
71.76	27
71.77	34
71.78	27
71.79	33
71.8	28
71.81	24
71.82	26
71.83	21
71.84	21
71.85	22
71.86	26
71.87	30
71.88	28
71.89	19
71.9	34
71.91	26
71.92	32
71.93	23
71.94	27
71.95	15
71.96	24
71.97	31
71.98	24
71.99	37
72	27
72.01	25
72.02	31
72.03	25
72.04	22
72.05	31
72.06	31
72.07	26
72.08	29
72.09	26
72.1	25
72.11	28
72.12	24
72.13	26
72.14	36
72.15	27
72.16	30
72.17	22
72.18	29
72.19	19
72.2	34
72.21	27
72.22	21
72.23	19
72.24	26
72.25	29
72.26	34
72.27	24
72.28	28
72.29	18
72.3	28
72.31	21
72.32	28
72.33	32
72.34	28
72.35	17
72.36	21
72.37	21
72.38	31
72.39	16
72.4	36
72.41	22
72.42	22
72.43	31
72.44	22
72.45	26
72.46	24
72.47	31
72.48	24
72.49	33
72.5	36
72.51	27
72.52	32
72.53	30
72.54	22
72.55	24
72.56	36
72.57	21
72.58	22
72.59	27
72.6	26
72.61	13
72.62	18
72.63	27
72.64	22
72.65	17
72.66	27
72.67	27
72.68	24
72.69	23
72.7	19
72.71	37
72.72	41
72.73	25
72.74	21
72.75	19
72.76	26
72.77	28
72.78	23
72.79	32
72.8	28
72.81	16
72.82	20
72.83	35
72.84	28
72.85	27
72.86	23
72.87	23
72.88	36
72.89	21
72.9	23
72.91	28
72.92	26
72.93	23
72.94	21
72.95	25
72.96	27
72.97	19
72.98	19
72.99	18
73	20
73.01	28
73.02	25
73.03	24
73.04	24
73.05	27
73.06	22
73.07	29
73.08	28
73.09	28
73.1	31
73.11	20
73.12	27
73.13	24
73.14	25
73.15	28
73.16	23
73.17	26
73.18	27
73.19	32
73.2	19
73.21	22
73.22	25
73.23	24
73.24	25
73.25	29
73.26	30
73.27	24
73.28	19
73.29	27
73.3	29
73.31	26
73.32	32
73.33	33
73.34	32
73.35	21
73.36	28
73.37	28
73.38	28
73.39	26
73.4	24
73.41	21
73.42	21
73.43	29
73.44	21
73.45	26
73.46	26
73.47	36
73.48	20
73.49	28
73.5	35
73.51	25
73.52	23
73.53	28
73.54	22
73.55	28
73.56	24
73.57	19
73.58	27
73.59	21
73.6	31
73.61	27
73.62	25
73.63	30
73.64	20
73.65	32
73.66	40
73.67	29
73.68	31
73.69	21
73.7	31
73.71	28
73.72	22
73.73	32
73.74	23
73.75	30
73.76	24
73.77	24
73.78	26
73.79	26
73.8	21
73.81	21
73.82	27
73.83	20
73.84	28
73.85	16
73.86	24
73.87	33
73.88	26
73.89	32
73.9	19
73.91	17
73.92	29
73.93	27
73.94	22
73.95	31
73.96	29
73.97	19
73.98	31
73.99	24
74	31
74.01	23
74.02	24
74.03	32
74.04	19
74.05	25
74.06	14
74.07	27
74.08	23
74.09	27
74.1	23
74.11	27
74.12	23
74.13	20
74.14	18
74.15	18
74.16	21
74.17	23
74.18	28
74.19	25
74.2	22
74.21	27
74.22	25
74.23	21
74.24	30
74.25	28
74.26	31
74.27	17
74.28	24
74.29	33
74.3	31
74.31	29
74.32	26
74.33	23
74.34	19
74.35	21
74.36	26
74.37	35
74.38	15
74.39	27
74.4	24
74.41	34
74.42	21
74.43	32
74.44	21
74.45	26
74.46	26
74.47	18
74.48	29
74.49	18
74.5	22
74.51	25
74.52	49
74.53	29
74.54	26
74.55	15
74.56	29
74.57	25
74.58	35
74.59	28
74.6	24
74.61	23
74.62	35
74.63	29
74.64	22
74.65	23
74.66	30
74.67	28
74.68	22
74.69	30
74.7	26
74.71	22
74.72	27
74.73	25
74.74	19
74.75	25
74.76	31
74.77	30
74.78	28
74.79	28
74.8	19
74.81	23
74.82	32
74.83	22
74.84	23
74.85	23
74.86	23
74.87	29
74.88	26
74.89	28
74.9	31
74.91	20
74.92	26
74.93	29
74.94	19
74.95	29
74.96	25
74.97	28
74.98	25
74.99	24
75	24
75.01	29
75.02	30
75.03	22
75.04	26
75.05	36
75.06	23
75.07	25
75.08	24
75.09	33
75.1	37
75.11	23
75.12	25
75.13	26
75.14	25
75.15	24
75.16	25
75.17	31
75.18	35
75.19	26
75.2	28
75.21	25
75.22	32
75.23	23
75.24	26
75.25	36
75.26	31
75.27	35
75.28	25
75.29	23
75.3	22
75.31	26
75.32	29
75.33	32
75.34	27
75.35	27
75.36	34
75.37	30
75.38	25
75.39	18
75.4	22
75.41	26
75.42	15
75.43	33
75.44	23
75.45	19
75.46	18
75.47	28
75.48	23
75.49	28
75.5	23
75.51	29
75.52	32
75.53	32
75.54	17
75.55	20
75.56	19
75.57	31
75.58	38
75.59	32
75.6	29
75.61	27
75.62	33
75.63	26
75.64	31
75.65	30
75.66	32
75.67	26
75.68	27
75.69	23
75.7	31
75.71	32
75.72	31
75.73	15
75.74	27
75.75	25
75.76	27
75.77	30
75.78	24
75.79	25
75.8	21
75.81	31
75.82	26
75.83	32
75.84	26
75.85	38
75.86	26
75.87	32
75.88	26
75.89	19
75.9	35
75.91	24
75.92	28
75.93	30
75.94	26
75.95	28
75.96	17
75.97	27
75.98	29
75.99	27
76	23
76.01	20
76.02	22
76.03	30
76.04	27
76.05	25
76.06	24
76.07	16
76.08	24
76.09	23
76.1	31
76.11	23
76.12	25
76.13	34
76.14	16
76.15	19
76.16	30
76.17	14
76.18	16
76.19	27
76.2	29
76.21	24
76.22	16
76.23	20
76.24	28
76.25	23
76.26	26
76.27	25
76.28	32
76.29	26
76.3	30
76.31	21
76.32	33
76.33	27
76.34	27
76.35	24
76.36	26
76.37	25
76.38	27
76.39	32
76.4	17
76.41	29
76.42	34
76.43	36
76.44	26
76.45	28
76.46	19
76.47	20
76.48	23
76.49	21
76.5	21
76.51	24
76.52	29
76.53	16
76.54	23
76.55	18
76.56	27
76.57	18
76.58	19
76.59	34
76.6	24
76.61	25
76.62	32
76.63	32
76.64	28
76.65	24
76.66	14
76.67	34
76.68	27
76.69	25
76.7	33
76.71	19
76.72	23
76.73	27
76.74	19
76.75	22
76.76	27
76.77	20
76.78	29
76.79	27
76.8	22
76.81	27
76.82	26
76.83	31
76.84	33
76.85	32
76.86	15
76.87	23
76.88	15
76.89	17
76.9	30
76.91	28
76.92	23
76.93	26
76.94	27
76.95	23
76.96	24
76.97	27
76.98	23
76.99	17
77	26
77.01	31
77.02	29
77.03	22
77.04	23
77.05	31
77.06	27
77.07	30
77.08	29
77.09	18
77.1	28
77.11	32
77.12	34
77.13	27
77.14	30
77.15	28
77.16	28
77.17	29
77.18	20
77.19	28
77.2	17
77.21	24
77.22	24
77.23	27
77.24	24
77.25	29
77.26	34
77.27	23
77.28	25
77.29	22
77.3	16
77.31	27
77.32	25
77.33	20
77.34	17
77.35	20
77.36	23
77.37	34
77.38	26
77.39	19
77.4	27
77.41	21
77.42	25
77.43	22
77.44	29
77.45	18
77.46	26
77.47	27
77.48	30
77.49	25
77.5	22
77.51	19
77.52	29
77.53	24
77.54	26
77.55	23
77.56	17
77.57	25
77.58	18
77.59	27
77.6	26
77.61	37
77.62	31
77.63	20
77.64	24
77.65	32
77.66	28
77.67	31
77.68	26
77.69	19
77.7	28
77.71	17
77.72	28
77.73	32
77.74	34
77.75	24
77.76	19
77.77	24
77.78	33
77.79	28
77.8	18
77.81	19
77.82	31
77.83	18
77.84	35
77.85	23
77.86	29
77.87	41
77.88	28
77.89	23
77.9	26
77.91	17
77.92	38
77.93	28
77.94	26
77.95	30
77.96	32
77.97	24
77.98	29
77.99	32
78	32
78.01	25
78.02	34
78.03	23
78.04	36
78.05	18
78.06	39
78.07	35
78.08	35
78.09	32
78.1	38
78.11	32
78.12	42
78.13	44
78.14	37
78.15	42
78.16	40
78.17	27
78.18	32
78.19	37
78.2	32
78.21	40
78.22	32
78.23	35
78.24	24
78.25	38
78.26	29
78.27	35
78.28	32
78.29	24
78.3	32
78.31	35
78.32	34
78.33	23
78.34	26
78.35	42
78.36	34
78.37	39
78.38	24
78.39	27
78.4	35
78.41	38
78.42	28
78.43	32
78.44	25
78.45	32
78.46	27
78.47	24
78.48	33
78.49	25
78.5	23
78.51	28
78.52	21
78.53	15
78.54	25
78.55	27
78.56	25
78.57	23
78.58	21
78.59	17
78.6	25
78.61	25
78.62	24
78.63	32
78.64	30
78.65	21
78.66	29
78.67	30
78.68	24
78.69	18
78.7	32
78.71	23
78.72	23
78.73	28
78.74	22
78.75	19
78.76	34
78.77	18
78.78	27
78.79	32
78.8	23
78.81	20
78.82	16
78.83	31
78.84	32
78.85	16
78.86	35
78.87	21
78.88	28
78.89	28
78.9	28
78.91	22
78.92	24
78.93	33
78.94	26
78.95	29
78.96	21
78.97	31
78.98	32
78.99	20
79	28
79.01	21
79.02	23
79.03	18
79.04	24
79.05	27
79.06	30
79.07	23
79.08	23
79.09	25
79.1	27
79.11	17
79.12	19
79.13	27
79.14	23
79.15	24
79.16	27
79.17	30
79.18	24
79.19	27
79.2	27
79.21	27
79.22	22
79.23	20
79.24	36
79.25	27
79.26	19
79.27	24
79.28	21
79.29	28
79.3	24
79.31	25
79.32	17
79.33	21
79.34	18
79.35	21
79.36	34
79.37	27
79.38	23
79.39	21
79.4	16
79.41	18
79.42	31
79.43	20
79.44	25
79.45	22
79.46	23
79.47	37
79.48	29
79.49	23
79.5	23
79.51	28
79.52	26
79.53	29
79.54	28
79.55	30
79.56	23
79.57	19
79.58	23
79.59	26
79.6	22
79.61	20
79.62	20
79.63	21
79.64	30
79.65	19
79.66	21
79.67	18
79.68	26
79.69	27
79.7	32
79.71	20
79.72	22
79.73	25
79.74	17
79.75	19
79.76	16
79.77	22
79.78	31
79.79	26
79.8	24
79.81	36
79.82	17
79.83	19
79.84	25
79.85	28
79.86	19
79.87	15
79.88	29
79.89	23
79.9	28
79.91	32
79.92	30
79.93	31
79.94	25
79.95	26
79.96	22
79.97	24
79.98	26
79.99	23
80	29
