10	152
10.01	136
10.02	149
10.03	135
10.04	144
10.05	155
10.06	135
10.07	159
10.08	147
10.09	124
10.1	147
10.11	112
10.12	148
10.13	153
10.14	130
10.15	135
10.16	129
10.17	141
10.18	140
10.19	123
10.2	138
10.21	128
10.22	121
10.23	123
10.24	117
10.25	123
10.26	134
10.27	150
10.28	109
10.29	108
10.3	106
10.31	106
10.32	124
10.33	108
10.34	125
10.35	102
10.36	85
10.37	99
10.38	108
10.39	84
10.4	105
10.41	90
10.42	88
10.43	118
10.44	89
10.45	87
10.46	81
10.47	75
10.48	91
10.49	87
10.5	73
10.51	69
10.52	83
10.53	69
10.54	84
10.55	78
10.56	60
10.57	72
10.58	57
10.59	69
10.6	60
10.61	64
10.62	72
10.63	73
10.64	63
10.65	66
10.66	55
10.67	69
10.68	65
10.69	51
10.7	65
10.71	52
10.72	65
10.73	72
10.74	72
10.75	54
10.76	67
10.77	55
10.78	71
10.79	57
10.8	54
10.81	59
10.82	58
10.83	57
10.84	67
10.85	70
10.86	56
10.87	67
10.88	61
10.89	66
10.9	70
10.91	65
10.92	58
10.93	58
10.94	78
10.95	59
10.96	76
10.97	58
10.98	64
10.99	55
11	55
11.01	72
11.02	58
11.03	74
11.04	76
11.05	57
11.06	54
11.07	70
11.08	53
11.09	61
11.1	72
11.11	62
11.12	65
11.13	77
11.14	57
11.15	57
11.16	66
11.17	60
11.18	62
11.19	66
11.2	64
11.21	68
11.22	49
11.23	74
11.24	53
11.25	69
11.26	63
11.27	56
11.28	57
11.29	69
11.3	70
11.31	78
11.32	75
11.33	67
11.34	58
11.35	69
11.36	78
11.37	77
11.38	56
11.39	68
11.4	66
11.41	58
11.42	59
11.43	58
11.44	70
11.45	69
11.46	74
11.47	73
11.48	57
11.49	72
11.5	76
11.51	62
11.52	63
11.53	65
11.54	53
11.55	72
11.56	54
11.57	75
11.58	81
11.59	62
11.6	65
11.61	49
11.62	72
11.63	50
11.64	52
11.65	51
11.66	80
11.67	50
11.68	59
11.69	58
11.7	56
11.71	62
11.72	60
11.73	72
11.74	62
11.75	78
11.76	60
11.77	71
11.78	76
11.79	48
11.8	51
11.81	78
11.82	56
11.83	75
11.84	65
11.85	63
11.86	68
11.87	57
11.88	67
11.89	65
11.9	68
11.91	55
11.92	59
11.93	62
11.94	64
11.95	39
11.96	71
11.97	56
11.98	67
11.99	75
12	65
12.01	57
12.02	69
12.03	79
12.04	87
12.05	75
12.06	61
12.07	70
12.08	70
12.09	75
12.1	64
12.11	73
12.12	65
12.13	69
12.14	63
12.15	69
12.16	75
12.17	59
12.18	65
12.19	55
12.2	57
12.21	86
12.22	57
12.23	62
12.24	74
12.25	61
12.26	70
12.27	62
12.28	60
12.29	62
12.3	82
12.31	68
12.32	49
12.33	71
12.34	63
12.35	66
12.36	61
12.37	81
12.38	69
12.39	73
12.4	67
12.41	63
12.42	78
12.43	73
12.44	61
12.45	70
12.46	74
12.47	67
12.48	65
12.49	82
12.5	69
12.51	81
12.52	73
12.53	75
12.54	51
12.55	82
12.56	78
12.57	64
12.58	63
12.59	69
12.6	65
12.61	86
12.62	77
12.63	66
12.64	72
12.65	69
12.66	73
12.67	73
12.68	73
12.69	60
12.7	71
12.71	59
12.72	73
12.73	72
12.74	72
12.75	64
12.76	79
12.77	68
12.78	72
12.79	78
12.8	80
12.81	71
12.82	63
12.83	66
12.84	84
12.85	57
12.86	76
12.87	82
12.88	68
12.89	74
12.9	68
12.91	74
12.92	64
12.93	78
12.94	73
12.95	69
12.96	68
12.97	83
12.98	84
12.99	67
13	74
13.01	74
13.02	68
13.03	97
13.04	75
13.05	89
13.06	81
13.07	81
13.08	56
13.09	81
13.1	75
13.11	77
13.12	71
13.13	70
13.14	64
13.15	77
13.16	82
13.17	77
13.18	75
13.19	73
13.2	76
13.21	62
13.22	78
13.23	74
13.24	82
13.25	61
13.26	80
13.27	85
13.28	65
13.29	84
13.3	70
13.31	64
13.32	79
13.33	86
13.34	68
13.35	72
13.36	82
13.37	79
13.38	71
13.39	63
13.4	70
13.41	74
13.42	75
13.43	68
13.44	80
13.45	93
13.46	72
13.47	86
13.48	76
13.49	87
13.5	79
13.51	83
13.52	80
13.53	67
13.54	90
13.55	83
13.56	70
13.57	84
13.58	78
13.59	85
13.6	75
13.61	81
13.62	89
13.63	77
13.64	79
13.65	92
13.66	82
13.67	97
13.68	80
13.69	84
13.7	90
13.71	79
13.72	75
13.73	79
13.74	77
13.75	75
13.76	75
13.77	105
13.78	81
13.79	71
13.8	70
13.81	76
13.82	76
13.83	90
13.84	95
13.85	72
13.86	90
13.87	89
13.88	95
13.89	75
13.9	90
13.91	74
13.92	80
13.93	81
13.94	94
13.95	100
13.96	69
13.97	80
13.98	81
13.99	95
14	89
14.01	80
14.02	81
14.03	80
14.04	79
14.05	78
14.06	92
14.07	64
14.08	65
14.09	88
14.1	76
14.11	63
14.12	78
14.13	82
14.14	80
14.15	69
14.16	77
14.17	91
14.18	76
14.19	75
14.2	94
14.21	87
14.22	103
14.23	78
14.24	94
14.25	99
14.26	89
14.27	88
14.28	99
14.29	102
14.3	107
14.31	91
14.32	107
14.33	102
14.34	112
14.35	101
14.36	101
14.37	99
14.38	118
14.39	116
14.4	101
14.41	114
14.42	113
14.43	100
14.44	88
14.45	93
14.46	109
14.47	89
14.48	97
14.49	95
14.5	75
14.51	93
14.52	87
14.53	99
14.54	92
14.55	82
14.56	91
14.57	94
14.58	82
14.59	74
14.6	87
14.61	83
14.62	81
14.63	77
14.64	75
14.65	74
14.66	67
14.67	90
14.68	75
14.69	65
14.7	76
14.71	80
14.72	72
14.73	87
14.74	89
14.75	80
14.76	55
14.77	82
14.78	72
14.79	67
14.8	72
14.81	86
14.82	76
14.83	77
14.84	66
14.85	80
14.86	66
14.87	85
14.88	64
14.89	91
14.9	70
14.91	74
14.92	80
14.93	84
14.94	80
14.95	92
14.96	91
14.97	75
14.98	76
14.99	80
15	80
15.01	76
15.02	92
15.03	76
15.04	76
15.05	73
15.06	66
15.07	64
15.08	76
15.09	62
15.1	73
15.11	72
15.12	72
15.13	81
15.14	76
15.15	88
15.16	80
15.17	78
15.18	67
15.19	66
15.2	67
15.21	70
15.22	85
15.23	63
15.24	95
15.25	56
15.26	81
15.27	83
15.28	86
15.29	76
15.3	60
15.31	101
15.32	78
15.33	71
15.34	79
15.35	78
15.36	65
15.37	58
15.38	68
15.39	80
15.4	67
15.41	84
15.42	64
15.43	77
15.44	67
15.45	76
15.46	73
15.47	77
15.48	71
15.49	73
15.5	75
15.51	71
15.52	72
15.53	64
15.54	88
15.55	63
15.56	94
15.57	73
15.58	81
15.59	64
15.6	79
15.61	74
15.62	78
15.63	78
15.64	84
15.65	92
15.66	86
15.67	76
15.68	76
15.69	72
15.7	90
15.71	82
15.72	66
15.73	87
15.74	84
15.75	86
15.76	81
15.77	75
15.78	80
15.79	56
15.8	77
15.81	87
15.82	70
15.83	96
15.84	84
15.85	84
15.86	88
15.87	65
15.88	80
15.89	73
15.9	65
15.91	71
15.92	57
15.93	81
15.94	69
15.95	91
15.96	79
15.97	73
15.98	75
15.99	75
16	73
16.01	86
16.02	73
16.03	70
16.04	66
16.05	78
16.06	78
16.07	77
16.08	74
16.09	83
16.1	85
16.11	74
16.12	75
16.13	83
16.14	86
16.15	69
16.16	79
16.17	66
16.18	88
16.19	76
16.2	73
16.21	68
16.22	73
16.23	68
16.24	89
16.25	70
16.26	66
16.27	71
16.28	68
16.29	83
16.3	66
16.31	59
16.32	101
16.33	92
16.34	68
16.35	90
16.36	70
16.37	73
16.38	74
16.39	58
16.4	83
16.41	83
16.42	87
16.43	78
16.44	67
16.45	65
16.46	61
16.47	89
16.48	90
16.49	68
16.5	79
16.51	74
16.52	81
16.53	70
16.54	79
16.55	68
16.56	73
16.57	95
16.58	91
16.59	90
16.6	73
16.61	70
16.62	70
16.63	70
16.64	87
16.65	97
16.66	79
16.67	89
16.68	110
16.69	86
16.7	90
16.71	101
16.72	92
16.73	95
16.74	69
16.75	92
16.76	83
16.77	84
16.78	73
16.79	90
16.8	82
16.81	83
16.82	91
16.83	77
16.84	77
16.85	70
16.86	86
16.87	80
16.88	81
16.89	86
16.9	82
16.91	79
16.92	92
16.93	72
16.94	85
16.95	74
16.96	80
16.97	52
16.98	79
16.99	102
17	80
17.01	73
17.02	74
17.03	71
17.04	73
17.05	84
17.06	68
17.07	68
17.08	90
17.09	74
17.1	81
17.11	80
17.12	62
17.13	58
17.14	86
17.15	76
17.16	78
17.17	69
17.18	72
17.19	76
17.2	73
17.21	59
17.22	71
17.23	74
17.24	80
17.25	82
17.26	75
17.27	83
17.28	68
17.29	76
17.3	66
17.31	64
17.32	71
17.33	58
17.34	64
17.35	74
17.36	71
17.37	78
17.38	64
17.39	59
17.4	71
17.41	77
17.42	66
17.43	77
17.44	80
17.45	52
17.46	58
17.47	69
17.48	63
17.49	66
17.5	66
17.51	64
17.52	83
17.53	71
17.54	82
17.55	83
17.56	67
17.57	63
17.58	73
17.59	69
17.6	77
17.61	73
17.62	90
17.63	67
17.64	77
17.65	102
17.66	73
17.67	91
17.68	79
17.69	84
17.7	81
17.71	74
17.72	88
17.73	71
17.74	77
17.75	82
17.76	74
17.77	80
17.78	98
17.79	87
17.8	66
17.81	94
17.82	74
17.83	91
17.84	72
17.85	85
17.86	102
17.87	93
17.88	84
17.89	79
17.9	67
17.91	58
17.92	83
17.93	76
17.94	75
17.95	73
17.96	84
17.97	80
17.98	66
17.99	75
18	75
18.01	75
18.02	88
18.03	93
18.04	70
18.05	73
18.06	62
18.07	64
18.08	67
18.09	68
18.1	73
18.11	79
18.12	76
18.13	68
18.14	58
18.15	70
18.16	71
18.17	84
18.18	70
18.19	79
18.2	68
18.21	66
18.22	69
18.23	74
18.24	80
18.25	75
18.26	65
18.27	74
18.28	84
18.29	81
18.3	82
18.31	79
18.32	64
18.33	79
18.34	64
18.35	75
18.36	88
18.37	67
18.38	75
18.39	92
18.4	88
18.41	78
18.42	67
18.43	85
18.44	83
18.45	78
18.46	67
18.47	69
18.48	81
18.49	75
18.5	58
18.51	68
18.52	73
18.53	76
18.54	81
18.55	66
18.56	92
18.57	107
18.58	74
18.59	70
18.6	80
18.61	82
18.62	76
18.63	67
18.64	72
18.65	74
18.66	67
18.67	66
18.68	72
18.69	70
18.7	75
18.71	70
18.72	77
18.73	77
18.74	72
18.75	68
18.76	66
18.77	76
18.78	79
18.79	63
18.8	81
18.81	87
18.82	78
18.83	89
18.84	90
18.85	86
18.86	70
18.87	73
18.88	77
18.89	87
18.9	92
18.91	86
18.92	89
18.93	83
18.94	90
18.95	94
18.96	105
18.97	96
18.98	87
18.99	87
19	75
19.01	75
19.02	78
19.03	56
19.04	78
19.05	69
19.06	76
19.07	69
19.08	66
19.09	85
19.1	69
19.11	79
19.12	63
19.13	74
19.14	76
19.15	60
19.16	72
19.17	85
19.18	70
19.19	61
19.2	71
19.21	68
19.22	70
19.23	65
19.24	102
19.25	77
19.26	71
19.27	77
19.28	80
19.29	92
19.3	82
19.31	68
19.32	69
19.33	76
19.34	85
19.35	74
19.36	78
19.37	72
19.38	84
19.39	85
19.4	84
19.41	68
19.42	81
19.43	77
19.44	81
19.45	85
19.46	92
19.47	74
19.48	77
19.49	94
19.5	71
19.51	92
19.52	87
19.53	72
19.54	96
19.55	79
19.56	66
19.57	92
19.58	65
19.59	80
19.6	94
19.61	92
19.62	96
19.63	75
19.64	76
19.65	73
19.66	91
19.67	89
19.68	99
19.69	85
19.7	86
19.71	95
19.72	100
19.73	93
19.74	97
19.75	83
19.76	89
19.77	82
19.78	71
19.79	84
19.8	95
19.81	93
19.82	97
19.83	82
19.84	79
19.85	89
19.86	95
19.87	77
19.88	88
19.89	72
19.9	101
19.91	96
19.92	110
19.93	87
19.94	91
19.95	88
19.96	108
19.97	90
19.98	104
19.99	105
20	98
20.01	98
20.02	99
20.03	72
20.04	102
20.05	95
20.06	110
20.07	88
20.08	79
20.09	107
20.1	92
20.11	93
20.12	83
20.13	110
20.14	82
20.15	76
20.16	89
20.17	77
20.18	83
20.19	75
20.2	92
20.21	77
20.22	91
20.23	99
20.24	85
20.25	107
20.26	89
20.27	103
20.28	90
20.29	107
20.3	103
20.31	89
20.32	110
20.33	108
20.34	98
20.35	108
20.36	112
20.37	101
20.38	110
20.39	134
20.4	103
20.41	119
20.42	124
20.43	129
20.44	132
20.45	127
20.46	113
20.47	102
20.48	101
20.49	106
20.5	101
20.51	125
20.52	118
20.53	101
20.54	109
20.55	103
20.56	120
20.57	145
20.58	124
20.59	141
20.6	128
20.61	116
20.62	116
20.63	120
20.64	123
20.65	109
20.66	138
20.67	133
20.68	113
20.69	127
20.7	134
20.71	114
20.72	114
20.73	102
20.74	120
20.75	126
20.76	120
20.77	127
20.78	137
20.79	123
20.8	128
20.81	157
20.82	143
20.83	128
20.84	159
20.85	158
20.86	161
20.87	159
20.88	174
20.89	170
20.9	178
20.91	179
20.92	203
20.93	197
20.94	187
20.95	207
20.96	208
20.97	219
20.98	189
20.99	220
21	205
21.01	199
21.02	195
21.03	176
21.04	191
21.05	168
21.06	166
21.07	169
21.08	169
21.09	161
21.1	162
21.11	155
21.12	155
21.13	145
21.14	137
21.15	151
21.16	139
21.17	122
21.18	126
21.19	134
21.2	141
21.21	131
21.22	156
21.23	136
21.24	138
21.25	144
21.26	135
21.27	156
21.28	174
21.29	180
21.3	178
21.31	173
21.32	187
21.33	199
21.34	189
21.35	250
21.36	218
21.37	198
21.38	177
21.39	206
21.4	185
21.41	187
21.42	171
21.43	178
21.44	149
21.45	177
21.46	143
21.47	152
21.48	151
21.49	119
21.5	137
21.51	123
21.52	135
21.53	157
21.54	145
21.55	167
21.56	170
21.57	167
21.58	200
21.59	207
21.6	214
21.61	249
21.62	260
21.63	260
21.64	266
21.65	284
21.66	282
21.67	273
21.68	296
21.69	340
21.7	304
21.71	291
21.72	283
21.73	256
21.74	254
21.75	234
21.76	225
21.77	213
21.78	196
21.79	180
21.8	178
21.81	166
21.82	145
21.83	155
21.84	147
21.85	126
21.86	137
21.87	123
21.88	120
21.89	116
21.9	106
21.91	113
21.92	136
21.93	115
21.94	119
21.95	110
21.96	117
21.97	121
21.98	122
21.99	101
22	117
22.01	117
22.02	101
22.03	116
22.04	104
22.05	110
22.06	105
22.07	113
22.08	108
22.09	95
22.1	113
22.11	105
22.12	129
22.13	107
22.14	92
22.15	137
22.16	129
22.17	146
22.18	130
22.19	129
22.2	134
22.21	137
22.22	139
22.23	146
22.24	155
22.25	131
22.26	169
22.27	184
22.28	169
22.29	198
22.3	188
22.31	176
22.32	170
22.33	172
22.34	160
22.35	186
22.36	144
22.37	164
22.38	168
22.39	134
22.4	117
22.41	114
22.42	118
22.43	96
22.44	128
22.45	108
22.46	100
22.47	87
22.48	97
22.49	85
22.5	90
22.51	90
22.52	83
22.53	80
22.54	77
22.55	73
22.56	72
22.57	83
22.58	77
22.59	84
22.6	94
22.61	64
22.62	83
22.63	80
22.64	101
22.65	82
22.66	95
22.67	87
22.68	90
22.69	71
22.7	94
22.71	95
22.72	86
22.73	91
22.74	85
22.75	91
22.76	85
22.77	94
22.78	84
22.79	95
22.8	91
22.81	118
22.82	88
22.83	111
22.84	108
22.85	103
22.86	94
22.87	109
22.88	125
22.89	118
22.9	114
22.91	130
22.92	120
22.93	133
22.94	130
22.95	112
22.96	117
22.97	141
22.98	146
22.99	159
23	120
23.01	138
23.02	146
23.03	136
23.04	133
23.05	135
23.06	146
23.07	150
23.08	145
23.09	131
23.1	106
23.11	136
23.12	108
23.13	116
23.14	118
23.15	121
23.16	117
23.17	130
23.18	95
23.19	103
23.2	92
23.21	90
23.22	99
23.23	123
23.24	100
23.25	86
23.26	92
23.27	94
23.28	82
23.29	92
23.3	86
23.31	90
23.32	105
23.33	81
23.34	90
23.35	78
23.36	76
23.37	71
23.38	75
23.39	76
23.4	73
23.41	85
23.42	79
23.43	64
23.44	74
23.45	66
23.46	75
23.47	80
23.48	72
23.49	89
23.5	82
23.51	76
23.52	92
23.53	69
23.54	67
23.55	90
23.56	84
23.57	84
23.58	101
23.59	85
23.6	88
23.61	92
23.62	83
23.63	84
23.64	87
23.65	89
23.66	93
23.67	82
23.68	71
23.69	88
23.7	74
23.71	74
23.72	70
23.73	93
23.74	96
23.75	97
23.76	97
23.77	84
23.78	88
23.79	90
23.8	92
23.81	94
23.82	101
23.83	91
23.84	93
23.85	87
23.86	73
23.87	99
23.88	90
23.89	72
23.9	72
23.91	84
23.92	101
23.93	89
23.94	96
23.95	97
23.96	69
23.97	76
23.98	82
23.99	65
24	80
24.01	80
24.02	84
24.03	94
24.04	82
24.05	89
24.06	70
24.07	89
24.08	96
24.09	83
24.1	97
24.11	91
24.12	89
24.13	104
24.14	99
24.15	98
24.16	105
24.17	91
24.18	85
24.19	123
24.2	106
24.21	96
24.22	97
24.23	84
24.24	97
24.25	110
24.26	109
24.27	103
24.28	114
24.29	112
24.3	113
24.31	93
24.32	99
24.33	96
24.34	100
24.35	93
24.36	107
24.37	81
24.38	92
24.39	70
24.4	92
24.41	75
24.42	91
24.43	70
24.44	79
24.45	79
24.46	72
24.47	89
24.48	80
24.49	73
24.5	99
24.51	71
24.52	66
24.53	74
24.54	62
24.55	68
24.56	82
24.57	76
24.58	71
24.59	67
24.6	74
24.61	67
24.62	86
24.63	87
24.64	59
24.65	76
24.66	74
24.67	60
24.68	75
24.69	77
24.7	77
24.71	76
24.72	64
24.73	79
24.74	68
24.75	81
24.76	57
24.77	81
24.78	51
24.79	69
24.8	56
24.81	69
24.82	66
24.83	69
24.84	71
24.85	66
24.86	83
24.87	71
24.88	70
24.89	74
24.9	67
24.91	80
24.92	76
24.93	69
24.94	74
24.95	84
24.96	65
24.97	69
24.98	83
24.99	70
25	91
25.01	72
25.02	71
25.03	65
25.04	69
25.05	69
25.06	66
25.07	74
25.08	63
25.09	76
25.1	71
25.11	61
25.12	64
25.13	59
25.14	75
25.15	66
25.16	79
25.17	63
25.18	57
25.19	83
25.2	75
25.21	88
25.22	81
25.23	74
25.24	66
25.25	63
25.26	77
25.27	70
25.28	89
25.29	73
25.3	88
25.31	79
25.32	78
25.33	87
25.34	100
25.35	87
25.36	69
25.37	78
25.38	80
25.39	82
25.4	85
25.41	97
25.42	81
25.43	76
25.44	72
25.45	81
25.46	81
25.47	85
25.48	74
25.49	68
25.5	58
25.51	81
25.52	67
25.53	85
25.54	80
25.55	83
25.56	67
25.57	70
25.58	68
25.59	67
25.6	67
25.61	64
25.62	76
25.63	70
25.64	63
25.65	69
25.66	64
25.67	77
25.68	68
25.69	68
25.7	73
25.71	55
25.72	58
25.73	63
25.74	66
25.75	68
25.76	62
25.77	64
25.78	55
25.79	64
25.8	51
25.81	47
25.82	70
25.83	64
25.84	66
25.85	59
25.86	49
25.87	62
25.88	62
25.89	55
25.9	55
25.91	60
25.92	59
25.93	64
25.94	49
25.95	60
25.96	50
25.97	57
25.98	61
25.99	53
26	51
26.01	52
26.02	47
26.03	53
26.04	60
26.05	60
26.06	65
26.07	56
26.08	43
26.09	57
26.1	73
26.11	65
26.12	60
26.13	75
26.14	63
26.15	59
26.16	58
26.17	58
26.18	62
26.19	67
26.2	67
26.21	59
26.22	63
26.23	64
26.24	56
26.25	64
26.26	61
26.27	58
26.28	41
26.29	62
26.3	63
26.31	79
26.32	57
26.33	71
26.34	57
26.35	54
26.36	37
26.37	57
26.38	61
26.39	60
26.4	51
26.41	62
26.42	52
26.43	47
26.44	49
26.45	60
26.46	44
26.47	62
26.48	45
26.49	64
26.5	53
26.51	75
26.52	65
26.53	60
26.54	69
26.55	72
26.56	49
26.57	50
26.58	66
26.59	64
26.6	58
26.61	70
26.62	51
26.63	64
26.64	46
26.65	41
26.66	61
26.67	57
26.68	59
26.69	57
26.7	54
26.71	65
26.72	61
26.73	51
26.74	52
26.75	74
26.76	66
26.77	61
26.78	56
26.79	45
26.8	42
26.81	50
26.82	55
26.83	49
26.84	63
26.85	65
26.86	55
26.87	58
26.88	62
26.89	58
26.9	50
26.91	53
26.92	61
26.93	46
26.94	60
26.95	60
26.96	60
26.97	54
26.98	68
26.99	60
27	73
27.01	55
27.02	59
27.03	56
27.04	74
27.05	65
27.06	61
27.07	69
27.08	62
27.09	54
27.1	71
27.11	70
27.12	65
27.13	53
27.14	83
27.15	61
27.16	59
27.17	59
27.18	74
27.19	57
27.2	60
27.21	63
27.22	74
27.23	64
27.24	65
27.25	74
27.26	59
27.27	47
27.28	60
27.29	62
27.3	65
27.31	81
27.32	73
27.33	66
27.34	51
27.35	61
27.36	64
27.37	62
27.38	69
27.39	55
27.4	52
27.41	50
27.42	50
27.43	67
27.44	58
27.45	55
27.46	46
27.47	62
27.48	58
27.49	58
27.5	50
27.51	59
27.52	62
27.53	50
27.54	72
27.55	55
27.56	59
27.57	50
27.58	53
27.59	48
27.6	42
27.61	53
27.62	49
27.63	51
27.64	48
27.65	49
27.66	53
27.67	53
27.68	54
27.69	54
27.7	66
27.71	57
27.72	62
27.73	46
27.74	59
27.75	57
27.76	55
27.77	56
27.78	62
27.79	47
27.8	43
27.81	51
27.82	49
27.83	57
27.84	54
27.85	58
27.86	55
27.87	52
27.88	46
27.89	71
27.9	50
27.91	54
27.92	56
27.93	62
27.94	59
27.95	66
27.96	66
27.97	58
27.98	59
27.99	63
28	62
28.01	56
28.02	56
28.03	65
28.04	59
28.05	57
28.06	68
28.07	49
28.08	54
28.09	58
28.1	48
28.11	63
28.12	62
28.13	51
28.14	53
28.15	48
28.16	43
28.17	59
28.18	61
28.19	55
28.2	68
28.21	60
28.22	62
28.23	65
28.24	62
28.25	64
28.26	61
28.27	59
28.28	66
28.29	57
28.3	54
28.31	54
28.32	68
28.33	60
28.34	54
28.35	49
28.36	72
28.37	70
28.38	63
28.39	57
28.4	51
28.41	61
28.42	61
28.43	79
28.44	71
28.45	65
28.46	57
28.47	76
28.48	61
28.49	64
28.5	57
28.51	62
28.52	51
28.53	70
28.54	65
28.55	59
28.56	59
28.57	60
28.58	67
28.59	70
28.6	40
28.61	44
28.62	52
28.63	58
28.64	58
28.65	49
28.66	59
28.67	52
28.68	66
28.69	60
28.7	67
28.71	53
28.72	55
28.73	48
28.74	46
28.75	60
28.76	51
28.77	41
28.78	42
28.79	45
28.8	54
28.81	39
28.82	50
28.83	48
28.84	49
28.85	63
28.86	60
28.87	53
28.88	50
28.89	51
28.9	41
28.91	55
28.92	43
28.93	54
28.94	58
28.95	49
28.96	49
28.97	59
28.98	47
28.99	46
29	53
29.01	68
29.02	48
29.03	54
29.04	61
29.05	49
29.06	57
29.07	48
29.08	58
29.09	42
29.1	48
29.11	59
29.12	60
29.13	47
29.14	54
29.15	54
29.16	57
29.17	42
29.18	50
29.19	60
29.2	49
29.21	60
29.22	55
29.23	59
29.24	61
29.25	54
29.26	50
29.27	75
29.28	56
29.29	67
29.3	56
29.31	47
29.32	63
29.33	74
29.34	49
29.35	61
29.36	66
29.37	75
29.38	67
29.39	62
29.4	87
29.41	68
29.42	75
29.43	74
29.44	85
29.45	75
29.46	70
29.47	76
29.48	83
29.49	84
29.5	67
29.51	81
29.52	79
29.53	80
29.54	66
29.55	74
29.56	67
29.57	77
29.58	69
29.59	59
29.6	52
29.61	70
29.62	61
29.63	69
29.64	60
29.65	59
29.66	54
29.67	53
29.68	45
29.69	60
29.7	58
29.71	68
29.72	55
29.73	57
29.74	47
29.75	66
29.76	70
29.77	62
29.78	69
29.79	52
29.8	53
29.81	67
29.82	72
29.83	59
29.84	52
29.85	53
29.86	56
29.87	66
29.88	68
29.89	53
29.9	60
29.91	46
29.92	57
29.93	66
29.94	56
29.95	62
29.96	59
29.97	68
29.98	53
29.99	74
30	62
30.01	59
30.02	65
30.03	52
30.04	70
30.05	53
30.06	58
30.07	63
30.08	42
30.09	53
30.1	63
30.11	50
30.12	51
30.13	67
30.14	50
30.15	52
30.16	56
30.17	56
30.18	40
30.19	57
30.2	37
30.21	56
30.22	66
30.23	61
30.24	60
30.25	49
30.26	47
30.27	54
30.28	56
30.29	48
30.3	64
30.31	40
30.32	72
30.33	54
30.34	58
30.35	45
30.36	58
30.37	61
30.38	59
30.39	62
30.4	59
30.41	54
30.42	53
30.43	47
30.44	52
30.45	51
30.46	58
30.47	58
30.48	60
30.49	47
30.5	62
30.51	60
30.52	49
30.53	40
30.54	56
30.55	54
30.56	50
30.57	53
30.58	56
30.59	47
30.6	46
30.61	59
30.62	49
30.63	48
30.64	64
30.65	58
30.66	48
30.67	60
30.68	62
30.69	46
30.7	47
30.71	52
30.72	51
30.73	51
30.74	49
30.75	49
30.76	37
30.77	61
30.78	46
30.79	54
30.8	50
30.81	42
30.82	49
30.83	42
30.84	59
30.85	54
30.86	56
30.87	53
30.88	66
30.89	52
30.9	59
30.91	60
30.92	81
30.93	87
30.94	73
30.95	60
30.96	63
30.97	51
30.98	79
30.99	73
31	80
31.01	80
31.02	68
31.03	72
31.04	67
31.05	74
31.06	71
31.07	63
31.08	66
31.09	68
31.1	60
31.11	57
31.12	41
31.13	48
31.14	55
31.15	59
31.16	57
31.17	46
31.18	59
31.19	50
31.2	50
31.21	40
31.22	55
31.23	50
31.24	53
31.25	47
31.26	58
31.27	56
31.28	43
31.29	51
31.3	60
31.31	46
31.32	49
31.33	44
31.34	47
31.35	47
31.36	55
31.37	60
31.38	52
31.39	53
31.4	64
31.41	59
31.42	61
31.43	50
31.44	44
31.45	64
31.46	39
31.47	52
31.48	72
31.49	58
31.5	52
31.51	55
31.52	49
31.53	70
31.54	58
31.55	49
31.56	48
31.57	66
31.58	68
31.59	62
31.6	56
31.61	60
31.62	72
31.63	48
31.64	44
31.65	48
31.66	39
31.67	58
31.68	46
31.69	51
31.7	45
31.71	48
31.72	54
31.73	54
31.74	43
31.75	41
31.76	49
31.77	58
31.78	51
31.79	55
31.8	48
31.81	67
31.82	48
31.83	52
31.84	45
31.85	48
31.86	48
31.87	62
31.88	47
31.89	49
31.9	47
31.91	55
31.92	48
31.93	57
31.94	52
31.95	58
31.96	57
31.97	43
31.98	59
31.99	60
32	55
32.01	59
32.02	57
32.03	49
32.04	55
32.05	53
32.06	46
32.07	56
32.08	70
32.09	58
32.1	58
32.11	59
32.12	55
32.13	49
32.14	54
32.15	52
32.16	55
32.17	54
32.18	47
32.19	56
32.2	49
32.21	46
32.22	59
32.23	61
32.24	51
32.25	56
32.26	55
32.27	44
32.28	52
32.29	36
32.3	37
32.31	48
32.32	40
32.33	59
32.34	46
32.35	41
32.36	55
32.37	37
32.38	45
32.39	40
32.4	52
32.41	41
32.42	43
32.43	44
32.44	29
32.45	50
32.46	44
32.47	57
32.48	44
32.49	71
32.5	49
32.51	47
32.52	44
32.53	46
32.54	41
32.55	39
32.56	56
32.57	60
32.58	44
32.59	48
32.6	49
32.61	42
32.62	47
32.63	51
32.64	48
32.65	40
32.66	44
32.67	49
32.68	45
32.69	57
32.7	48
32.71	53
32.72	52
32.73	53
32.74	48
32.75	41
32.76	53
32.77	46
32.78	51
32.79	47
32.8	53
32.81	46
32.82	41
32.83	47
32.84	42
32.85	47
32.86	35
32.87	41
32.88	40
32.89	42
32.9	34
32.91	46
32.92	40
32.93	33
32.94	34
32.95	34
32.96	39
32.97	42
32.98	34
32.99	46
33	40
33.01	41
33.02	51
33.03	37
33.04	48
33.05	44
33.06	53
33.07	53
33.08	37
33.09	46
33.1	47
33.11	42
33.12	47
33.13	45
33.14	39
33.15	41
33.16	34
33.17	50
33.18	36
33.19	41
33.2	47
33.21	43
33.22	50
33.23	46
33.24	41
33.25	42
33.26	41
33.27	49
33.28	41
33.29	48
33.3	40
33.31	50
33.32	36
33.33	34
33.34	44
33.35	48
33.36	43
33.37	42
33.38	53
33.39	44
33.4	47
33.41	43
33.42	43
33.43	40
33.44	43
33.45	47
33.46	43
33.47	50
33.48	50
33.49	44
33.5	35
33.51	44
33.52	55
33.53	46
33.54	33
33.55	40
33.56	37
33.57	48
33.58	58
33.59	46
33.6	48
33.61	51
33.62	40
33.63	54
33.64	54
33.65	38
33.66	56
33.67	46
33.68	54
33.69	58
33.7	49
33.71	56
33.72	49
33.73	50
33.74	66
33.75	49
33.76	50
33.77	59
33.78	41
33.79	38
33.8	52
33.81	49
33.82	45
33.83	57
33.84	49
33.85	48
33.86	51
33.87	39
33.88	39
33.89	55
33.9	52
33.91	56
33.92	46
33.93	42
33.94	38
33.95	46
33.96	41
33.97	37
33.98	47
33.99	39
34	29
34.01	40
34.02	47
34.03	43
34.04	51
34.05	37
34.06	44
34.07	50
34.08	50
34.09	42
34.1	39
34.11	45
34.12	38
34.13	48
34.14	47
34.15	43
34.16	40
34.17	47
34.18	55
34.19	35
34.2	45
34.21	43
34.22	45
34.23	46
34.24	52
34.25	43
34.26	50
34.27	38
34.28	58
34.29	49
34.3	46
34.31	44
34.32	46
34.33	48
34.34	30
34.35	38
34.36	48
34.37	38
34.38	36
34.39	43
34.4	41
34.41	27
34.42	36
34.43	40
34.44	48
34.45	54
34.46	33
34.47	50
34.48	44
34.49	46
34.5	47
34.51	46
34.52	45
34.53	43
34.54	52
34.55	62
34.56	49
34.57	42
34.58	53
34.59	49
34.6	52
34.61	52
34.62	52
34.63	58
34.64	56
34.65	42
34.66	43
34.67	46
34.68	42
34.69	41
34.7	36
34.71	34
34.72	48
34.73	32
34.74	48
34.75	35
34.76	45
34.77	41
34.78	38
34.79	40
34.8	48
34.81	33
34.82	46
34.83	40
34.84	41
34.85	41
34.86	40
34.87	44
34.88	49
34.89	47
34.9	42
34.91	41
34.92	37
34.93	29
34.94	45
34.95	38
34.96	38
34.97	58
34.98	44
34.99	44
35	50
35.01	42
35.02	36
35.03	48
35.04	40
35.05	51
35.06	55
35.07	48
35.08	42
35.09	37
35.1	34
35.11	47
35.12	44
35.13	36
35.14	44
35.15	41
35.16	29
35.17	36
35.18	46
35.19	45
35.2	50
35.21	55
35.22	43
35.23	38
35.24	51
35.25	45
35.26	40
35.27	35
35.28	45
35.29	53
35.3	35
35.31	37
35.32	43
35.33	53
35.34	40
35.35	35
35.36	44
35.37	41
35.38	39
35.39	48
35.4	35
35.41	35
35.42	46
35.43	43
35.44	35
35.45	38
35.46	50
35.47	52
35.48	49
35.49	53
35.5	60
35.51	62
35.52	53
35.53	51
35.54	54
35.55	39
35.56	50
35.57	59
35.58	51
35.59	60
35.6	56
35.61	45
35.62	48
35.63	45
35.64	46
35.65	53
35.66	56
35.67	57
35.68	61
35.69	49
35.7	48
35.71	45
35.72	54
35.73	57
35.74	52
35.75	50
35.76	50
35.77	50
35.78	52
35.79	45
35.8	61
35.81	44
35.82	47
35.83	49
35.84	69
35.85	65
35.86	57
35.87	52
35.88	54
35.89	51
35.9	61
35.91	47
35.92	46
35.93	63
35.94	65
35.95	55
35.96	47
35.97	53
35.98	74
35.99	47
36	42
36.01	42
36.02	41
36.03	47
36.04	52
36.05	48
36.06	56
36.07	38
36.08	49
36.09	39
36.1	41
36.11	41
36.12	35
36.13	43
36.14	54
36.15	41
36.16	48
36.17	36
36.18	44
36.19	40
36.2	39
36.21	40
36.22	40
36.23	38
36.24	48
36.25	40
36.26	39
36.27	44
36.28	27
36.29	39
36.3	43
36.31	51
36.32	42
36.33	43
36.34	40
36.35	38
36.36	49
36.37	35
36.38	28
36.39	34
36.4	39
36.41	38
36.42	37
36.43	35
36.44	45
36.45	41
36.46	42
36.47	32
36.48	46
36.49	35
36.5	31
36.51	30
36.52	41
36.53	52
36.54	37
36.55	39
36.56	33
36.57	43
36.58	57
36.59	33
36.6	33
36.61	42
36.62	37
36.63	48
36.64	29
36.65	45
36.66	33
36.67	34
36.68	44
36.69	27
36.7	41
36.71	38
36.72	51
36.73	26
36.74	35
36.75	42
36.76	36
36.77	35
36.78	31
36.79	40
36.8	29
36.81	42
36.82	49
36.83	47
36.84	32
36.85	43
36.86	42
36.87	47
36.88	47
36.89	41
36.9	36
36.91	53
36.92	32
36.93	39
36.94	35
36.95	35
36.96	33
36.97	38
36.98	45
36.99	37
37	38
37.01	34
37.02	47
37.03	54
37.04	34
37.05	42
37.06	41
37.07	41
37.08	34
37.09	32
37.1	52
37.11	39
37.12	46
37.13	42
37.14	45
37.15	45
37.16	43
37.17	43
37.18	47
37.19	39
37.2	43
37.21	34
37.22	37
37.23	49
37.24	38
37.25	47
37.26	46
37.27	41
37.28	40
37.29	47
37.3	42
37.31	40
37.32	45
37.33	41
37.34	35
37.35	44
37.36	40
37.37	29
37.38	33
37.39	48
37.4	45
37.41	42
37.42	40
37.43	24
37.44	39
37.45	42
37.46	47
37.47	50
37.48	42
37.49	45
37.5	40
37.51	42
37.52	51
37.53	31
37.54	33
37.55	40
37.56	41
37.57	34
37.58	40
37.59	38
37.6	54
37.61	38
37.62	36
37.63	47
37.64	43
37.65	47
37.66	50
37.67	45
37.68	41
37.69	49
37.7	48
37.71	48
37.72	46
37.73	49
37.74	47
37.75	41
37.76	36
37.77	47
37.78	47
37.79	48
37.8	44
37.81	34
37.82	48
37.83	45
37.84	48
37.85	54
37.86	45
37.87	52
37.88	53
37.89	49
37.9	55
37.91	39
37.92	47
37.93	52
37.94	61
37.95	57
37.96	53
37.97	47
37.98	54
37.99	55
38	53
38.01	57
38.02	52
38.03	53
38.04	52
38.05	50
38.06	70
38.07	48
38.08	46
38.09	56
38.1	62
38.11	58
38.12	69
38.13	60
38.14	64
38.15	67
38.16	63
38.17	65
38.18	69
38.19	87
38.2	90
38.21	91
38.22	103
38.23	138
38.24	116
38.25	139
38.26	143
38.27	176
38.28	205
38.29	224
38.3	221
38.31	249
38.32	287
38.33	332
38.34	412
38.35	471
38.36	531
38.37	601
38.38	690
38.39	755
38.4	809
38.41	786
38.42	834
38.43	863
38.44	869
38.45	827
38.46	750
38.47	722
38.48	717
38.49	647
38.5	652
38.51	586
38.52	535
38.53	494
38.54	460
38.55	393
38.56	358
38.57	310
38.58	272
38.59	246
38.6	176
38.61	165
38.62	139
38.63	130
38.64	94
38.65	79
38.66	101
38.67	83
38.68	77
38.69	75
38.7	83
38.71	71
38.72	63
38.73	63
38.74	70
38.75	65
38.76	70
38.77	61
38.78	54
38.79	54
38.8	46
38.81	55
38.82	56
38.83	60
38.84	57
38.85	40
38.86	61
38.87	47
38.88	52
38.89	50
38.9	41
38.91	54
38.92	41
38.93	50
38.94	51
38.95	65
38.96	51
38.97	50
38.98	57
38.99	50
39	41
39.01	50
39.02	44
39.03	53
39.04	45
39.05	45
39.06	31
39.07	51
39.08	43
39.09	37
39.1	43
39.11	36
39.12	48
39.13	41
39.14	37
39.15	43
39.16	46
39.17	36
39.18	42
39.19	35
39.2	41
39.21	40
39.22	42
39.23	45
39.24	32
39.25	55
39.26	36
39.27	37
39.28	26
39.29	39
39.3	45
39.31	49
39.32	39
39.33	43
39.34	42
39.35	35
39.36	38
39.37	41
39.38	35
39.39	42
39.4	36
39.41	28
39.42	41
39.43	38
39.44	36
39.45	41
39.46	41
39.47	42
39.48	40
39.49	30
39.5	39
39.51	39
39.52	27
39.53	39
39.54	46
39.55	47
39.56	33
39.57	38
39.58	46
39.59	37
39.6	37
39.61	44
39.62	40
39.63	28
39.64	32
39.65	45
39.66	48
39.67	50
39.68	46
39.69	29
39.7	32
39.71	35
39.72	35
39.73	43
39.74	33
39.75	32
39.76	40
39.77	49
39.78	37
39.79	47
39.8	46
39.81	34
39.82	48
39.83	54
39.84	42
39.85	34
39.86	42
39.87	37
39.88	40
39.89	42
39.9	35
39.91	42
39.92	43
39.93	40
39.94	33
39.95	40
39.96	42
39.97	42
39.98	38
39.99	41
40	34
40.01	44
40.02	41
40.03	36
40.04	33
40.05	46
40.06	37
40.07	38
40.08	48
40.09	50
40.1	39
40.11	51
40.12	50
40.13	50
40.14	50
40.15	33
40.16	49
40.17	46
40.18	39
40.19	37
40.2	41
40.21	40
40.22	41
40.23	39
40.24	35
40.25	41
40.26	42
40.27	37
40.28	39
40.29	45
40.3	30
40.31	40
40.32	47
40.33	31
40.34	40
40.35	41
40.36	37
40.37	38
40.38	40
40.39	38
40.4	50
40.41	30
40.42	38
40.43	49
40.44	39
40.45	42
40.46	42
40.47	53
40.48	52
40.49	43
40.5	46
40.51	44
40.52	44
40.53	52
40.54	49
40.55	41
40.56	43
40.57	53
40.58	41
40.59	48
40.6	43
40.61	43
40.62	46
40.63	42
40.64	47
40.65	52
40.66	38
40.67	48
40.68	45
40.69	40
40.7	58
40.71	43
40.72	42
40.73	42
40.74	45
40.75	43
40.76	45
40.77	42
40.78	41
40.79	33
40.8	46
40.81	49
40.82	60
40.83	44
40.84	40
40.85	35
40.86	39
40.87	49
40.88	32
40.89	28
40.9	35
40.91	40
40.92	37
40.93	38
40.94	39
40.95	43
40.96	32
40.97	39
40.98	31
40.99	36
41	40
41.01	38
41.02	41
41.03	45
41.04	35
41.05	38
41.06	37
41.07	34
41.08	38
41.09	38
41.1	45
41.11	41
41.12	30
41.13	33
41.14	42
41.15	39
41.16	35
41.17	34
41.18	43
41.19	40
41.2	38
41.21	33
41.22	47
41.23	36
41.24	40
41.25	34
41.26	33
41.27	32
41.28	51
41.29	38
41.3	45
41.31	24
41.32	43
41.33	45
41.34	50
41.35	34
41.36	35
41.37	34
41.38	46
41.39	40
41.4	37
41.41	28
41.42	47
41.43	42
41.44	29
41.45	48
41.46	34
41.47	45
41.48	47
41.49	36
41.5	36
41.51	41
41.52	38
41.53	33
41.54	41
41.55	38
41.56	36
41.57	37
41.58	31
41.59	38
41.6	36
41.61	38
41.62	47
41.63	39
41.64	47
41.65	42
41.66	36
41.67	45
41.68	35
41.69	49
41.7	45
41.71	37
41.72	40
41.73	38
41.74	34
41.75	35
41.76	36
41.77	41
41.78	46
41.79	47
41.8	49
41.81	36
41.82	36
41.83	48
41.84	50
41.85	34
41.86	48
41.87	35
41.88	32
41.89	35
41.9	40
41.91	42
41.92	42
41.93	39
41.94	44
41.95	46
41.96	42
41.97	46
41.98	35
41.99	31
42	37
42.01	38
42.02	41
42.03	45
42.04	43
42.05	42
42.06	48
42.07	33
42.08	46
42.09	44
42.1	26
42.11	39
42.12	34
42.13	46
42.14	29
42.15	43
42.16	43
42.17	33
42.18	30
42.19	32
42.2	35
42.21	42
42.22	47
42.23	40
42.24	30
42.25	29
42.26	33
42.27	39
42.28	35
42.29	43
42.3	38
42.31	35
42.32	48
42.33	34
42.34	36
42.35	31
42.36	45
42.37	36
42.38	37
42.39	38
42.4	42
42.41	39
42.42	37
42.43	33
42.44	35
42.45	34
42.46	34
42.47	34
42.48	45
42.49	39
42.5	31
42.51	31
42.52	31
42.53	53
42.54	39
42.55	52
42.56	41
42.57	45
42.58	32
42.59	33
42.6	45
42.61	36
42.62	29
42.63	29
42.64	53
42.65	47
42.66	36
42.67	38
42.68	38
42.69	46
42.7	39
42.71	41
42.72	34
42.73	28
42.74	31
42.75	27
42.76	46
42.77	42
42.78	38
42.79	45
42.8	43
42.81	32
42.82	34
42.83	34
42.84	48
42.85	33
42.86	38
42.87	33
42.88	29
42.89	40
42.9	35
42.91	32
42.92	37
42.93	45
42.94	37
42.95	35
42.96	31
42.97	27
42.98	33
42.99	44
43	38
43.01	31
43.02	34
43.03	34
43.04	40
43.05	39
43.06	40
43.07	36
43.08	45
43.09	41
43.1	40
43.11	33
43.12	41
43.13	52
43.14	35
43.15	43
43.16	43
43.17	48
43.18	51
43.19	55
43.2	53
43.21	49
43.22	38
43.23	44
43.24	28
43.25	45
43.26	35
43.27	52
43.28	45
43.29	45
43.3	43
43.31	52
43.32	44
43.33	37
43.34	46
43.35	50
43.36	51
43.37	40
43.38	48
43.39	43
43.4	37
43.41	38
43.42	44
43.43	36
43.44	44
43.45	43
43.46	50
43.47	38
43.48	45
43.49	40
43.5	44
43.51	33
43.52	52
43.53	34
43.54	34
43.55	42
43.56	50
43.57	42
43.58	33
43.59	45
43.6	38
43.61	35
43.62	38
43.63	47
43.64	39
43.65	38
43.66	38
43.67	27
43.68	36
43.69	29
43.7	38
43.71	32
43.72	35
43.73	30
43.74	40
43.75	39
43.76	40
43.77	42
43.78	37
43.79	48
43.8	48
43.81	46
43.82	35
43.83	40
43.84	29
43.85	42
43.86	31
43.87	38
43.88	42
43.89	40
43.9	30
43.91	44
43.92	43
43.93	41
43.94	40
43.95	24
43.96	35
43.97	61
43.98	46
43.99	40
44	35
44.01	48
44.02	42
44.03	37
44.04	41
44.05	33
44.06	30
44.07	43
44.08	38
44.09	42
44.1	32
44.11	54
44.12	45
44.13	36
44.14	26
44.15	40
44.16	34
44.17	39
44.18	53
44.19	47
44.2	37
44.21	47
44.22	53
44.23	41
44.24	43
44.25	46
44.26	44
44.27	57
44.28	46
44.29	64
44.3	47
44.31	59
44.32	51
44.33	52
44.34	49
44.35	56
44.36	68
44.37	51
44.38	62
44.39	59
44.4	68
44.41	69
44.42	86
44.43	68
44.44	66
44.45	91
44.46	112
44.47	114
44.48	123
44.49	129
44.5	144
44.51	158
44.52	167
44.53	200
44.54	216
44.55	271
44.56	279
44.57	329
44.58	372
44.59	371
44.6	428
44.61	482
44.62	533
44.63	540
44.64	533
44.65	602
44.66	579
44.67	589
44.68	582
44.69	621
44.7	532
44.71	555
44.72	537
44.73	510
44.74	448
44.75	443
44.76	471
44.77	398
44.78	388
44.79	339
44.8	320
44.81	278
44.82	255
44.83	213
44.84	219
44.85	186
44.86	168
44.87	156
44.88	133
44.89	112
44.9	106
44.91	95
44.92	70
44.93	85
44.94	75
44.95	78
44.96	62
44.97	68
44.98	64
44.99	66
45	47
45.01	53
45.02	53
45.03	52
45.04	50
45.05	49
45.06	45
45.07	49
45.08	54
45.09	54
45.1	48
45.11	48
45.12	54
45.13	48
45.14	42
45.15	41
45.16	34
45.17	56
45.18	40
45.19	39
45.2	52
45.21	32
45.22	42
45.23	38
45.24	40
45.25	52
45.26	42
45.27	49
45.28	44
45.29	34
45.3	52
45.31	44
45.32	36
45.33	37
45.34	50
45.35	37
45.36	31
45.37	47
45.38	34
45.39	46
45.4	40
45.41	45
45.42	36
45.43	41
45.44	43
45.45	42
45.46	42
45.47	40
45.48	37
45.49	50
45.5	51
45.51	55
45.52	44
45.53	46
45.54	37
45.55	40
45.56	51
45.57	40
45.58	49
45.59	44
45.6	57
45.61	48
45.62	43
45.63	45
45.64	55
45.65	46
45.66	43
45.67	41
45.68	49
45.69	45
45.7	43
45.71	48
45.72	56
45.73	40
45.74	40
45.75	45
45.76	37
45.77	34
45.78	49
45.79	41
45.8	48
45.81	44
45.82	48
45.83	44
45.84	51
45.85	35
45.86	52
45.87	47
45.88	36
45.89	56
45.9	54
45.91	42
45.92	43
45.93	46
45.94	43
45.95	41
45.96	38
45.97	41
45.98	44
45.99	46
46	50
46.01	37
46.02	45
46.03	36
46.04	45
46.05	35
46.06	44
46.07	40
46.08	60
46.09	43
46.1	31
46.11	47
46.12	29
46.13	28
46.14	38
46.15	32
46.16	38
46.17	48
46.18	53
46.19	36
46.2	40
46.21	46
46.22	41
46.23	44
46.24	47
46.25	38
46.26	52
46.27	36
46.28	28
46.29	48
46.3	58
46.31	41
46.32	36
46.33	38
46.34	40
46.35	44
46.36	50
46.37	37
46.38	46
46.39	33
46.4	43
46.41	43
46.42	46
46.43	44
46.44	38
46.45	29
46.46	40
46.47	36
46.48	41
46.49	38
46.5	46
46.51	45
46.52	33
46.53	31
46.54	38
46.55	41
46.56	44
46.57	35
46.58	36
46.59	43
46.6	48
46.61	35
46.62	31
46.63	31
46.64	33
46.65	41
46.66	32
46.67	28
46.68	43
46.69	42
46.7	46
46.71	33
46.72	41
46.73	35
46.74	33
46.75	28
46.76	38
46.77	35
46.78	35
46.79	35
46.8	36
46.81	34
46.82	31
46.83	44
46.84	44
46.85	35
46.86	31
46.87	39
46.88	34
46.89	35
46.9	38
46.91	34
46.92	36
46.93	37
46.94	33
46.95	43
46.96	50
46.97	32
46.98	41
46.99	37
47	32
47.01	32
47.02	50
47.03	40
47.04	39
47.05	36
47.06	48
47.07	40
47.08	41
47.09	38
47.1	31
47.11	45
47.12	30
47.13	47
47.14	40
47.15	47
47.16	41
47.17	46
47.18	36
47.19	41
47.2	43
47.21	26
47.22	50
47.23	32
47.24	39
47.25	39
47.26	42
47.27	47
47.28	43
47.29	35
47.3	34
47.31	22
47.32	47
47.33	38
47.34	43
47.35	40
47.36	39
47.37	43
47.38	40
47.39	39
47.4	35
47.41	47
47.42	35
47.43	33
47.44	42
47.45	43
47.46	27
47.47	39
47.48	34
47.49	34
47.5	37
47.51	27
47.52	40
47.53	24
47.54	29
47.55	41
47.56	43
47.57	29
47.58	38
47.59	40
47.6	43
47.61	35
47.62	33
47.63	34
47.64	35
47.65	39
47.66	43
47.67	35
47.68	32
47.69	35
47.7	39
47.71	36
47.72	42
47.73	31
47.74	36
47.75	41
47.76	41
47.77	29
47.78	31
47.79	19
47.8	32
47.81	26
47.82	30
47.83	34
47.84	34
47.85	38
47.86	29
47.87	34
47.88	43
47.89	30
47.9	31
47.91	32
47.92	29
47.93	45
47.94	30
47.95	34
47.96	34
47.97	42
47.98	29
47.99	43
48	38
48.01	39
48.02	38
48.03	45
48.04	17
48.05	29
48.06	33
48.07	39
48.08	39
48.09	37
48.1	43
48.11	33
48.12	40
48.13	32
48.14	32
48.15	40
48.16	41
48.17	34
48.18	39
48.19	30
48.2	38
48.21	33
48.22	28
48.23	53
48.24	32
48.25	38
48.26	37
48.27	47
48.28	41
48.29	37
48.3	37
48.31	41
48.32	32
48.33	38
48.34	31
48.35	37
48.36	35
48.37	44
48.38	42
48.39	40
48.4	44
48.41	38
48.42	41
48.43	40
48.44	41
48.45	39
48.46	49
48.47	30
48.48	26
48.49	45
48.5	54
48.51	50
48.52	34
48.53	26
48.54	35
48.55	33
48.56	39
48.57	35
48.58	45
48.59	31
48.6	42
48.61	30
48.62	30
48.63	38
48.64	33
48.65	41
48.66	49
48.67	28
48.68	34
48.69	32
48.7	37
48.71	28
48.72	24
48.73	28
48.74	42
48.75	33
48.76	32
48.77	50
48.78	35
48.79	38
48.8	43
48.81	41
48.82	47
48.83	47
48.84	31
48.85	44
48.86	36
48.87	43
48.88	42
48.89	39
48.9	41
48.91	33
48.92	43
48.93	43
48.94	49
48.95	33
48.96	33
48.97	32
48.98	29
48.99	31
49	24
49.01	35
49.02	45
49.03	31
49.04	45
49.05	29
49.06	48
49.07	28
49.08	36
49.09	34
49.1	39
49.11	33
49.12	37
49.13	36
49.14	33
49.15	36
49.16	34
49.17	35
49.18	35
49.19	35
49.2	43
49.21	43
49.22	37
49.23	37
49.24	33
49.25	52
49.26	44
49.27	33
49.28	32
49.29	47
49.3	35
49.31	36
49.32	30
49.33	40
49.34	37
49.35	42
49.36	39
49.37	34
49.38	42
49.39	36
49.4	51
49.41	36
49.42	38
49.43	37
49.44	35
49.45	36
49.46	43
49.47	35
49.48	30
49.49	46
49.5	33
49.51	36
49.52	41
49.53	30
49.54	37
49.55	33
49.56	41
49.57	33
49.58	25
49.59	39
49.6	34
49.61	59
49.62	37
49.63	40
49.64	42
49.65	43
49.66	42
49.67	36
49.68	36
49.69	35
49.7	39
49.71	32
49.72	32
49.73	44
49.74	31
49.75	32
49.76	37
49.77	27
49.78	39
49.79	41
49.8	34
49.81	27
49.82	34
49.83	37
49.84	27
49.85	22
49.86	38
49.87	27
49.88	39
49.89	36
49.9	40
49.91	38
49.92	39
49.93	25
49.94	31
49.95	33
49.96	26
49.97	39
49.98	34
49.99	32
50	28
50.01	33
50.02	30
50.03	30
50.04	20
50.05	33
50.06	28
50.07	36
50.08	25
50.09	36
50.1	32
50.11	40
50.12	29
50.13	31
50.14	35
50.15	26
50.16	36
50.17	32
50.18	29
50.19	26
50.2	36
50.21	30
50.22	24
50.23	33
50.24	37
50.25	26
50.26	26
50.27	39
50.28	29
50.29	40
50.3	31
50.31	23
50.32	29
50.33	33
50.34	26
50.35	37
50.36	32
50.37	29
50.38	33
50.39	28
50.4	32
50.41	19
50.42	29
50.43	28
50.44	45
50.45	33
50.46	33
50.47	28
50.48	25
50.49	28
50.5	27
50.51	34
50.52	28
50.53	26
50.54	35
50.55	33
50.56	31
50.57	29
50.58	29
50.59	23
50.6	40
50.61	27
50.62	36
50.63	34
50.64	35
50.65	32
50.66	37
50.67	24
50.68	31
50.69	32
50.7	30
50.71	35
50.72	28
50.73	20
50.74	22
50.75	19
50.76	26
50.77	27
50.78	33
50.79	22
50.8	38
50.81	31
50.82	25
50.83	29
50.84	23
50.85	22
50.86	33
50.87	38
50.88	32
50.89	40
50.9	22
50.91	35
50.92	27
50.93	35
50.94	30
50.95	35
50.96	37
50.97	31
50.98	38
50.99	37
51	29
51.01	26
51.02	35
51.03	31
51.04	23
51.05	28
51.06	26
51.07	28
51.08	30
51.09	24
51.1	32
51.11	22
51.12	37
51.13	39
51.14	40
51.15	27
51.16	22
51.17	28
51.18	28
51.19	38
51.2	30
51.21	25
51.22	30
51.23	31
51.24	31
51.25	31
51.26	35
51.27	30
51.28	26
51.29	34
51.3	29
51.31	30
51.32	32
51.33	48
51.34	22
51.35	28
51.36	34
51.37	28
51.38	23
51.39	27
51.4	23
51.41	26
51.42	28
51.43	32
51.44	32
51.45	21
51.46	33
51.47	21
51.48	28
51.49	30
51.5	27
51.51	36
51.52	25
51.53	34
51.54	23
51.55	30
51.56	28
51.57	31
51.58	36
51.59	38
51.6	32
51.61	32
51.62	32
51.63	33
51.64	25
51.65	34
51.66	23
51.67	32
51.68	30
51.69	35
51.7	23
51.71	34
51.72	32
51.73	23
51.74	22
51.75	34
51.76	34
51.77	25
51.78	38
51.79	34
51.8	25
51.81	33
51.82	44
51.83	34
51.84	36
51.85	30
51.86	43
51.87	33
51.88	32
51.89	27
51.9	40
51.91	39
51.92	53
51.93	28
51.94	27
51.95	35
51.96	41
51.97	35
51.98	32
51.99	34
52	40
52.01	40
52.02	33
52.03	48
52.04	32
52.05	39
52.06	35
52.07	30
52.08	38
52.09	41
52.1	39
52.11	28
52.12	40
52.13	34
52.14	32
52.15	36
52.16	48
52.17	44
52.18	38
52.19	44
52.2	33
52.21	44
52.22	36
52.23	43
52.24	31
52.25	30
52.26	29
52.27	38
52.28	23
52.29	26
52.3	18
52.31	31
52.32	23
52.33	42
52.34	40
52.35	26
52.36	39
52.37	46
52.38	31
52.39	24
52.4	33
52.41	35
52.42	25
52.43	28
52.44	32
52.45	32
52.46	38
52.47	37
52.48	26
52.49	28
52.5	29
52.51	28
52.52	41
52.53	33
52.54	25
52.55	35
52.56	29
52.57	24
52.58	32
52.59	36
52.6	24
52.61	32
52.62	29
52.63	21
52.64	25
52.65	34
52.66	33
52.67	38
52.68	35
52.69	30
52.7	33
52.71	36
52.72	26
52.73	45
52.74	31
52.75	40
52.76	33
52.77	38
52.78	27
52.79	33
52.8	26
52.81	30
52.82	36
52.83	27
52.84	33
52.85	27
52.86	29
52.87	29
52.88	29
52.89	40
52.9	30
52.91	28
52.92	30
52.93	31
52.94	29
52.95	27
52.96	27
52.97	37
52.98	30
52.99	30
53	33
53.01	29
53.02	27
53.03	26
53.04	26
53.05	36
53.06	31
53.07	31
53.08	24
53.09	33
53.1	25
53.11	32
53.12	26
53.13	31
53.14	32
53.15	28
53.16	25
53.17	20
53.18	22
53.19	28
53.2	37
53.21	31
53.22	30
53.23	30
53.24	25
53.25	24
53.26	26
53.27	25
53.28	31
53.29	31
53.3	25
53.31	32
53.32	33
53.33	26
53.34	24
53.35	27
53.36	37
53.37	31
53.38	35
53.39	32
53.4	36
53.41	32
53.42	22
53.43	38
53.44	42
53.45	30
53.46	35
53.47	33
53.48	29
53.49	32
53.5	33
53.51	28
53.52	25
53.53	37
53.54	29
53.55	41
53.56	35
53.57	30
53.58	27
53.59	35
53.6	23
53.61	42
53.62	36
53.63	33
53.64	36
53.65	39
53.66	29
53.67	34
53.68	32
53.69	23
53.7	28
53.71	33
53.72	27
53.73	32
53.74	34
53.75	50
53.76	29
53.77	41
53.78	37
53.79	38
53.8	35
53.81	29
53.82	31
53.83	33
53.84	35
53.85	36
53.86	30
53.87	36
53.88	32
53.89	26
53.9	31
53.91	29
53.92	29
53.93	31
53.94	36
53.95	29
53.96	26
53.97	30
53.98	32
53.99	23
54	25
54.01	27
54.02	42
54.03	25
54.04	36
54.05	30
54.06	39
54.07	26
54.08	31
54.09	24
54.1	24
54.11	28
54.12	33
54.13	23
54.14	24
54.15	32
54.16	30
54.17	33
54.18	35
54.19	25
54.2	30
54.21	31
54.22	25
54.23	36
54.24	37
54.25	35
54.26	38
54.27	33
54.28	37
54.29	30
54.3	29
54.31	38
54.32	33
54.33	27
54.34	27
54.35	38
54.36	28
54.37	36
54.38	34
54.39	30
54.4	27
54.41	36
54.42	36
54.43	27
54.44	21
54.45	34
54.46	25
54.47	27
54.48	23
54.49	29
54.5	26
54.51	27
54.52	27
54.53	31
54.54	27
54.55	23
54.56	34
54.57	22
54.58	34
54.59	36
54.6	27
54.61	26
54.62	32
54.63	13
54.64	27
54.65	29
54.66	30
54.67	27
54.68	32
54.69	22
54.7	25
54.71	24
54.72	36
54.73	24
54.74	26
54.75	21
54.76	22
54.77	23
54.78	29
54.79	41
54.8	18
54.81	26
54.82	21
54.83	21
54.84	20
54.85	27
54.86	31
54.87	24
54.88	25
54.89	35
54.9	29
54.91	41
54.92	27
54.93	24
54.94	33
54.95	23
54.96	20
54.97	22
54.98	34
54.99	23
55	30
55.01	29
55.02	33
55.03	28
55.04	19
55.05	22
55.06	22
55.07	27
55.08	40
55.09	23
55.1	41
55.11	29
55.12	38
55.13	22
55.14	31
55.15	25
55.16	27
55.17	26
55.18	30
55.19	32
55.2	33
55.21	26
55.22	26
55.23	27
55.24	30
55.25	26
55.26	34
55.27	36
55.28	30
55.29	26
55.3	36
55.31	29
55.32	39
55.33	24
55.34	19
55.35	26
55.36	33
55.37	33
55.38	20
55.39	35
55.4	32
55.41	28
55.42	31
55.43	24
55.44	31
55.45	31
55.46	13
55.47	26
55.48	30
55.49	28
55.5	27
55.51	23
55.52	35
55.53	34
55.54	29
55.55	21
55.56	27
55.57	21
55.58	45
55.59	26
55.6	32
55.61	19
55.62	19
55.63	28
55.64	24
55.65	26
55.66	33
55.67	38
55.68	28
55.69	36
55.7	27
55.71	25
55.72	33
55.73	33
55.74	30
55.75	26
55.76	21
55.77	32
55.78	27
55.79	24
55.8	24
55.81	30
55.82	20
55.83	27
55.84	33
55.85	15
55.86	27
55.87	31
55.88	26
55.89	26
55.9	27
55.91	31
55.92	28
55.93	27
55.94	35
55.95	25
55.96	34
55.97	21
55.98	30
55.99	19
56	31
56.01	32
56.02	31
56.03	28
56.04	38
56.05	29
56.06	22
56.07	32
56.08	34
56.09	29
56.1	32
56.11	23
56.12	33
56.13	39
56.14	24
56.15	26
56.16	44
56.17	20
56.18	36
56.19	20
56.2	29
56.21	22
56.22	35
56.23	31
56.24	24
56.25	23
56.26	32
56.27	28
56.28	32
56.29	24
56.3	32
56.31	28
56.32	27
56.33	31
56.34	27
56.35	28
56.36	37
56.37	32
56.38	44
56.39	39
56.4	29
56.41	33
56.42	36
56.43	36
56.44	33
56.45	26
56.46	44
56.47	34
56.48	35
56.49	29
56.5	25
56.51	26
56.52	35
56.53	29
56.54	31
56.55	28
56.56	26
56.57	36
56.58	38
56.59	30
56.6	34
56.61	27
56.62	27
56.63	33
56.64	28
56.65	26
56.66	29
56.67	34
56.68	27
56.69	24
56.7	26
56.71	22
56.72	23
56.73	24
56.74	29
56.75	33
56.76	24
56.77	15
56.78	21
56.79	27
56.8	25
56.81	22
56.82	29
56.83	28
56.84	26
56.85	30
56.86	39
56.87	25
56.88	31
56.89	24
56.9	29
56.91	38
56.92	20
56.93	16
56.94	29
56.95	30
56.96	28
56.97	30
56.98	21
56.99	38
57	19
57.01	15
57.02	28
57.03	21
57.04	24
57.05	28
57.06	22
57.07	28
57.08	37
57.09	24
57.1	26
57.11	26
57.12	31
57.13	20
57.14	25
57.15	33
57.16	41
57.17	22
57.18	33
57.19	29
57.2	30
57.21	32
57.22	20
57.23	31
57.24	34
57.25	26
57.26	25
57.27	38
57.28	35
57.29	40
57.3	27
57.31	31
57.32	17
57.33	30
57.34	19
57.35	18
57.36	25
57.37	31
57.38	31
57.39	37
57.4	22
57.41	23
57.42	24
57.43	24
57.44	23
57.45	23
57.46	32
57.47	34
57.48	26
57.49	27
57.5	32
57.51	21
57.52	30
57.53	26
57.54	19
57.55	25
57.56	33
57.57	25
57.58	35
57.59	36
57.6	24
57.61	28
57.62	27
57.63	15
57.64	32
57.65	25
57.66	27
57.67	24
57.68	28
57.69	23
57.7	43
57.71	27
57.72	22
57.73	33
57.74	26
57.75	28
57.76	27
57.77	29
57.78	27
57.79	21
57.8	24
57.81	30
57.82	33
57.83	30
57.84	29
57.85	21
57.86	24
57.87	29
57.88	24
57.89	29
57.9	29
57.91	21
57.92	21
57.93	30
57.94	22
57.95	21
57.96	34
57.97	27
57.98	22
57.99	33
58	27
58.01	37
58.02	23
58.03	32
58.04	26
58.05	37
58.06	28
58.07	27
58.08	27
58.09	21
58.1	23
58.11	25
58.12	44
58.13	19
58.14	37
58.15	35
58.16	24
58.17	18
58.18	23
58.19	23
58.2	27
58.21	30
58.22	26
58.23	28
58.24	25
58.25	30
58.26	25
58.27	24
58.28	18
58.29	19
58.3	15
58.31	25
58.32	17
58.33	17
58.34	21
58.35	17
58.36	16
58.37	24
58.38	42
58.39	21
58.4	35
58.41	29
58.42	25
58.43	24
58.44	16
58.45	26
58.46	27
58.47	21
58.48	27
58.49	28
58.5	30
58.51	21
58.52	36
58.53	24
58.54	37
58.55	26
58.56	22
58.57	19
58.58	17
58.59	24
58.6	19
58.61	25
58.62	23
58.63	26
58.64	25
58.65	25
58.66	16
58.67	25
58.68	21
58.69	26
58.7	21
58.71	27
58.72	23
58.73	23
58.74	26
58.75	23
58.76	38
58.77	24
58.78	25
58.79	22
58.8	18
58.81	20
58.82	29
58.83	27
58.84	26
58.85	26
58.86	30
58.87	37
58.88	20
58.89	23
58.9	23
58.91	28
58.92	20
58.93	18
58.94	24
58.95	27
58.96	29
58.97	26
58.98	28
58.99	28
59	17
59.01	29
59.02	24
59.03	18
59.04	18
59.05	21
59.06	24
59.07	19
59.08	28
59.09	24
59.1	27
59.11	27
59.12	31
59.13	23
59.14	20
59.15	20
59.16	28
59.17	22
59.18	28
59.19	27
59.2	26
59.21	27
59.22	27
59.23	26
59.24	19
59.25	16
59.26	21
59.27	28
59.28	20
59.29	20
59.3	27
59.31	23
59.32	24
59.33	27
59.34	25
59.35	26
59.36	24
59.37	34
59.38	26
59.39	26
59.4	24
59.41	23
59.42	33
59.43	31
59.44	25
59.45	23
59.46	29
59.47	19
59.48	32
59.49	35
59.5	21
59.51	29
59.52	32
59.53	28
59.54	32
59.55	34
59.56	24
59.57	21
59.58	24
59.59	24
59.6	23
59.61	28
59.62	35
59.63	31
59.64	22
59.65	23
59.66	26
59.67	29
59.68	16
59.69	27
59.7	35
59.71	32
59.72	26
59.73	30
59.74	27
59.75	21
59.76	27
59.77	21
59.78	26
59.79	21
59.8	35
59.81	36
59.82	21
59.83	29
59.84	30
59.85	18
59.86	33
59.87	24
59.88	37
59.89	25
59.9	26
59.91	24
59.92	34
59.93	26
59.94	22
59.95	22
59.96	31
59.97	31
59.98	26
59.99	21
60	25
60.01	21
60.02	22
60.03	24
60.04	13
60.05	19
60.06	30
60.07	32
60.08	21
60.09	22
60.1	24
60.11	28
60.12	21
60.13	27
60.14	28
60.15	24
60.16	24
60.17	23
60.18	20
60.19	22
60.2	26
60.21	18
60.22	15
60.23	32
60.24	28
60.25	29
60.26	23
60.27	25
60.28	34
60.29	29
60.3	25
60.31	32
60.32	31
60.33	25
60.34	37
60.35	23
60.36	24
60.37	21
60.38	27
60.39	25
60.4	25
60.41	26
60.42	31
60.43	24
60.44	18
60.45	31
60.46	15
60.47	27
60.48	28
60.49	24
60.5	32
60.51	21
60.52	34
60.53	23
60.54	27
60.55	21
60.56	31
60.57	23
60.58	30
60.59	15
60.6	36
60.61	29
60.62	31
60.63	32
60.64	30
60.65	26
60.66	17
60.67	27
60.68	29
60.69	30
60.7	21
60.71	24
60.72	19
60.73	28
60.74	21
60.75	30
60.76	33
60.77	20
60.78	28
60.79	25
60.8	21
60.81	23
60.82	21
60.83	38
60.84	27
60.85	28
60.86	23
60.87	23
60.88	23
60.89	21
60.9	27
60.91	20
60.92	28
60.93	29
60.94	23
60.95	34
60.96	25
60.97	25
60.98	32
60.99	25
61	32
61.01	28
61.02	28
61.03	33
61.04	24
61.05	27
61.06	30
61.07	29
61.08	27
61.09	22
61.1	20
61.11	31
61.12	25
61.13	17
61.14	27
61.15	26
61.16	25
61.17	35
61.18	23
61.19	20
61.2	26
61.21	24
61.22	22
61.23	30
61.24	18
61.25	17
61.26	30
61.27	30
61.28	30
61.29	18
61.3	26
61.31	19
61.32	24
61.33	20
61.34	31
61.35	27
61.36	30
61.37	30
61.38	37
61.39	28
61.4	21
61.41	23
61.42	27
61.43	21
61.44	22
61.45	32
61.46	34
61.47	34
61.48	18
61.49	27
61.5	13
61.51	38
61.52	21
61.53	26
61.54	26
61.55	33
61.56	25
61.57	30
61.58	21
61.59	20
61.6	25
61.61	30
61.62	25
61.63	29
61.64	20
61.65	25
61.66	38
61.67	24
61.68	28
61.69	22
61.7	19
61.71	23
61.72	30
61.73	21
61.74	31
61.75	27
61.76	19
61.77	18
61.78	23
61.79	28
61.8	20
61.81	32
61.82	27
61.83	23
61.84	23
61.85	31
61.86	34
61.87	25
61.88	26
61.89	24
61.9	19
61.91	27
61.92	28
61.93	22
61.94	22
61.95	38
61.96	21
61.97	24
61.98	21
61.99	34
62	26
62.01	17
62.02	27
62.03	19
62.04	23
62.05	31
62.06	32
62.07	26
62.08	33
62.09	40
62.1	26
62.11	37
62.12	27
62.13	24
62.14	31
62.15	30
62.16	31
62.17	29
62.18	23
62.19	12
62.2	29
62.21	19
62.22	21
62.23	34
62.24	27
62.25	22
62.26	13
62.27	27
62.28	23
62.29	25
62.3	23
62.31	22
62.32	24
62.33	26
62.34	23
62.35	23
62.36	23
62.37	27
62.38	27
62.39	27
62.4	27
62.41	32
62.42	28
62.43	19
62.44	31
62.45	21
62.46	20
62.47	31
62.48	25
62.49	24
62.5	19
62.51	26
62.52	21
62.53	21
62.54	18
62.55	28
62.56	19
62.57	20
62.58	18
62.59	20
62.6	21
62.61	17
62.62	25
62.63	34
62.64	30
62.65	17
62.66	14
62.67	20
62.68	21
62.69	23
62.7	14
62.71	32
62.72	17
62.73	25
62.74	21
62.75	26
62.76	21
62.77	17
62.78	19
62.79	26
62.8	19
62.81	19
62.82	18
62.83	27
62.84	20
62.85	28
62.86	27
62.87	25
62.88	33
62.89	22
62.9	21
62.91	23
62.92	17
62.93	29
62.94	35
62.95	23
62.96	19
62.97	26
62.98	24
62.99	23
63	20
63.01	27
63.02	19
63.03	23
63.04	19
63.05	29
63.06	27
63.07	25
63.08	25
63.09	28
63.1	19
63.11	22
63.12	22
63.13	29
63.14	21
63.15	13
63.16	23
63.17	22
63.18	23
63.19	32
63.2	24
63.21	21
63.22	27
63.23	15
63.24	25
63.25	19
63.26	28
63.27	27
63.28	31
63.29	27
63.3	22
63.31	23
63.32	26
63.33	18
63.34	27
63.35	21
63.36	30
63.37	23
63.38	27
63.39	19
63.4	18
63.41	15
63.42	30
63.43	26
63.44	17
63.45	25
63.46	28
63.47	20
63.48	23
63.49	35
63.5	26
63.51	29
63.52	21
63.53	20
63.54	20
63.55	23
63.56	31
63.57	25
63.58	24
63.59	27
63.6	24
63.61	30
63.62	25
63.63	29
63.64	26
63.65	23
63.66	23
63.67	16
63.68	28
63.69	27
63.7	24
63.71	27
63.72	33
63.73	36
63.74	30
63.75	30
63.76	28
63.77	24
63.78	26
63.79	33
63.8	40
63.81	28
63.82	28
63.83	37
63.84	38
63.85	27
63.86	34
63.87	24
63.88	33
63.89	31
63.9	27
63.91	24
63.92	33
63.93	31
63.94	25
63.95	31
63.96	27
63.97	18
63.98	19
63.99	24
64	38
64.01	31
64.02	23
64.03	17
64.04	25
64.05	36
64.06	22
64.07	24
64.08	32
64.09	23
64.1	30
64.11	30
64.12	22
64.13	29
64.14	40
64.15	26
64.16	28
64.17	20
64.18	35
64.19	23
64.2	18
64.21	28
64.22	23
64.23	33
64.24	36
64.25	31
64.26	32
64.27	19
64.28	20
64.29	24
64.3	26
64.31	29
64.32	30
64.33	27
64.34	31
64.35	28
64.36	38
64.37	26
64.38	32
64.39	22
64.4	27
64.41	25
64.42	16
64.43	31
64.44	27
64.45	21
64.46	31
64.47	30
64.48	34
64.49	26
64.5	32
64.51	28
64.52	25
64.53	21
64.54	28
64.55	23
64.56	30
64.57	19
64.58	26
64.59	40
64.6	17
64.61	23
64.62	27
64.63	28
64.64	30
64.65	28
64.66	40
64.67	33
64.68	23
64.69	33
64.7	33
64.71	30
64.72	29
64.73	32
64.74	33
64.75	30
64.76	31
64.77	40
64.78	32
64.79	31
64.8	42
64.81	43
64.82	31
64.83	32
64.84	29
64.85	45
64.86	31
64.87	42
64.88	43
64.89	31
64.9	44
64.91	48
64.92	44
64.93	71
64.94	62
64.95	60
64.96	55
64.97	73
64.98	86
64.99	77
65	85
65.01	95
65.02	78
65.03	104
65.04	101
65.05	96
65.06	112
65.07	91
65.08	100
65.09	95
65.1	102
65.11	102
65.12	85
65.13	80
65.14	85
65.15	82
65.16	82
65.17	69
65.18	77
65.19	71
65.2	74
65.21	71
65.22	64
65.23	71
65.24	81
65.25	64
65.26	63
65.27	64
65.28	72
65.29	55
65.3	62
65.31	61
65.32	36
65.33	48
65.34	44
65.35	44
65.36	55
65.37	36
65.38	29
65.39	34
65.4	23
65.41	46
65.42	25
65.43	35
65.44	20
65.45	43
65.46	40
65.47	25
65.48	41
65.49	34
65.5	22
65.51	33
65.52	31
65.53	34
65.54	23
65.55	27
65.56	20
65.57	21
65.58	27
65.59	25
65.6	23
65.61	36
65.62	24
65.63	26
65.64	28
65.65	22
65.66	31
65.67	29
65.68	25
65.69	24
65.7	24
65.71	19
65.72	21
65.73	20
65.74	32
65.75	28
65.76	20
65.77	30
65.78	26
65.79	20
65.8	33
65.81	26
65.82	32
65.83	20
65.84	20
65.85	29
65.86	23
65.87	24
65.88	30
65.89	33
65.9	28
65.91	29
65.92	24
65.93	22
65.94	28
65.95	33
65.96	26
65.97	46
65.98	30
65.99	26
66	31
66.01	35
66.02	21
66.03	32
66.04	24
66.05	28
66.06	22
66.07	24
66.08	26
66.09	21
66.1	24
66.11	24
66.12	23
66.13	29
66.14	22
66.15	24
66.16	23
66.17	21
66.18	26
66.19	25
66.2	27
66.21	22
66.22	18
66.23	21
66.24	19
66.25	33
66.26	33
66.27	26
66.28	31
66.29	32
66.3	21
66.31	21
66.32	32
66.33	31
66.34	27
66.35	31
66.36	34
66.37	33
66.38	26
66.39	23
66.4	24
66.41	28
66.42	22
66.43	29
66.44	31
66.45	33
66.46	17
66.47	25
66.48	22
66.49	19
66.5	19
66.51	23
66.52	25
66.53	26
66.54	20
66.55	28
66.56	32
66.57	28
66.58	26
66.59	22
66.6	29
66.61	26
66.62	29
66.63	23
66.64	20
66.65	24
66.66	24
66.67	21
66.68	25
66.69	20
66.7	16
66.71	25
66.72	27
66.73	19
66.74	20
66.75	31
66.76	17
66.77	36
66.78	13
66.79	27
66.8	27
66.81	26
66.82	33
66.83	31
66.84	25
66.85	30
66.86	15
66.87	23
66.88	26
66.89	26
66.9	17
66.91	20
66.92	20
66.93	23
66.94	24
66.95	20
66.96	27
66.97	20
66.98	21
66.99	28
67	24
67.01	15
67.02	30
67.03	31
67.04	24
67.05	20
67.06	29
67.07	37
67.08	25
67.09	29
67.1	19
67.11	17
67.12	16
67.13	18
67.14	25
67.15	25
67.16	24
67.17	23
67.18	27
67.19	22
67.2	27
67.21	26
67.22	25
67.23	24
67.24	24
67.25	17
67.26	23
67.27	20
67.28	27
67.29	27
67.3	25
67.31	18
67.32	21
67.33	17
67.34	15
67.35	20
67.36	25
67.37	22
67.38	22
67.39	30
67.4	24
67.41	27
67.42	27
67.43	15
67.44	20
67.45	28
67.46	26
67.47	17
67.48	20
67.49	17
67.5	35
67.51	29
67.52	28
67.53	33
67.54	17
67.55	29
67.56	26
67.57	32
67.58	17
67.59	33
67.6	26
67.61	28
67.62	26
67.63	22
67.64	19
67.65	27
67.66	31
67.67	21
67.68	27
67.69	22
67.7	18
67.71	26
67.72	34
67.73	23
67.74	22
67.75	24
67.76	28
67.77	21
67.78	22
67.79	27
67.8	28
67.81	28
67.82	29
67.83	29
67.84	34
67.85	27
67.86	22
67.87	34
67.88	18
67.89	17
67.9	22
67.91	20
67.92	26
67.93	25
67.94	42
67.95	23
67.96	26
67.97	26
67.98	26
67.99	28
68	27
68.01	27
68.02	19
68.03	25
68.04	26
68.05	18
68.06	34
68.07	24
68.08	22
68.09	21
68.1	19
68.11	21
68.12	21
68.13	22
68.14	28
68.15	25
68.16	28
68.17	20
68.18	13
68.19	22
68.2	22
68.21	18
68.22	31
68.23	32
68.24	24
68.25	23
68.26	27
68.27	19
68.28	19
68.29	26
68.3	22
68.31	16
68.32	24
68.33	27
68.34	19
68.35	21
68.36	31
68.37	27
68.38	29
68.39	33
68.4	26
68.41	22
68.42	19
68.43	24
68.44	27
68.45	19
68.46	25
68.47	26
68.48	18
68.49	22
68.5	18
68.51	18
68.52	21
68.53	22
68.54	18
68.55	22
68.56	21
68.57	26
68.58	26
68.59	24
68.6	21
68.61	30
68.62	28
68.63	21
68.64	22
68.65	18
68.66	14
68.67	17
68.68	35
68.69	31
68.7	23
68.71	22
68.72	14
68.73	14
68.74	26
68.75	21
68.76	27
68.77	24
68.78	26
68.79	27
68.8	17
68.81	26
68.82	32
68.83	30
68.84	19
68.85	16
68.86	32
68.87	45
68.88	20
68.89	22
68.9	23
68.91	20
68.92	21
68.93	23
68.94	18
68.95	20
68.96	35
68.97	28
68.98	34
68.99	28
69	29
69.01	12
69.02	23
69.03	17
69.04	24
69.05	23
69.06	15
69.07	30
69.08	31
69.09	17
69.1	17
69.11	23
69.12	25
69.13	25
69.14	16
69.15	24
69.16	22
69.17	24
69.18	21
69.19	22
69.2	18
69.21	14
69.22	15
69.23	24
69.24	15
69.25	23
69.26	22
69.27	26
69.28	25
69.29	27
69.3	15
69.31	15
69.32	14
69.33	27
69.34	30
69.35	24
69.36	28
69.37	27
69.38	25
69.39	26
69.4	18
69.41	25
69.42	38
69.43	28
69.44	33
69.45	21
69.46	18
69.47	20
69.48	27
69.49	24
69.5	24
69.51	30
69.52	26
69.53	28
69.54	19
69.55	24
69.56	30
69.57	17
69.58	21
69.59	34
69.6	25
69.61	28
69.62	23
69.63	24
69.64	22
69.65	23
69.66	32
69.67	23
69.68	29
69.69	31
69.7	21
69.71	24
69.72	23
69.73	30
69.74	24
69.75	27
69.76	19
69.77	30
69.78	32
69.79	22
69.8	23
69.81	17
69.82	22
69.83	22
69.84	24
69.85	23
69.86	31
69.87	28
69.88	20
69.89	36
69.9	20
69.91	26
69.92	22
69.93	19
69.94	26
69.95	20
69.96	31
69.97	24
69.98	20
69.99	18
70	25
70.01	23
70.02	20
70.03	30
70.04	25
70.05	25
70.06	37
70.07	25
70.08	28
70.09	16
70.1	27
70.11	24
70.12	17
70.13	23
70.14	24
70.15	24
70.16	25
70.17	24
70.18	14
70.19	23
70.2	22
70.21	20
70.22	24
70.23	25
70.24	17
70.25	22
70.26	29
70.27	27
70.28	23
70.29	16
70.3	20
70.31	24
70.32	22
70.33	24
70.34	14
70.35	27
70.36	22
70.37	24
70.38	18
70.39	25
70.4	22
70.41	16
70.42	21
70.43	15
70.44	16
70.45	31
70.46	27
70.47	21
70.48	26
70.49	28
70.5	19
70.51	28
70.52	27
70.53	22
70.54	21
70.55	25
70.56	26
70.57	16
70.58	19
70.59	17
70.6	18
70.61	27
70.62	32
70.63	18
70.64	19
70.65	39
70.66	26
70.67	16
70.68	23
70.69	25
70.7	19
70.71	19
70.72	18
70.73	22
70.74	26
70.75	11
70.76	30
70.77	30
70.78	27
70.79	22
70.8	20
70.81	21
70.82	23
70.83	21
70.84	19
70.85	24
70.86	28
70.87	24
70.88	19
70.89	22
70.9	20
70.91	28
70.92	16
70.93	25
70.94	30
70.95	20
70.96	21
70.97	27
70.98	23
70.99	20
71	31
71.01	30
71.02	19
71.03	17
71.04	21
71.05	21
71.06	18
71.07	19
71.08	22
71.09	20
71.1	22
71.11	25
71.12	18
71.13	23
71.14	26
71.15	26
71.16	23
71.17	15
71.18	16
71.19	25
71.2	22
71.21	24
71.22	17
71.23	12
71.24	20
71.25	24
71.26	14
71.27	25
71.28	26
71.29	15
71.3	22
71.31	17
71.32	17
71.33	21
71.34	22
71.35	24
71.36	18
71.37	27
71.38	14
71.39	20
71.4	24
71.41	14
71.42	29
71.43	19
71.44	19
71.45	11
71.46	20
71.47	21
71.48	18
71.49	19
71.5	24
71.51	26
71.52	25
71.53	18
71.54	32
71.55	23
71.56	29
71.57	25
71.58	18
71.59	30
71.6	18
71.61	24
71.62	26
71.63	24
71.64	24
71.65	23
71.66	15
71.67	27
71.68	22
71.69	19
71.7	28
71.71	18
71.72	26
71.73	19
71.74	30
71.75	21
71.76	15
71.77	14
71.78	25
71.79	19
71.8	36
71.81	22
71.82	17
71.83	24
71.84	17
71.85	23
71.86	17
71.87	25
71.88	20
71.89	17
71.9	20
71.91	18
71.92	16
71.93	22
71.94	19
71.95	11
71.96	20
71.97	26
71.98	27
71.99	28
72	28
72.01	27
72.02	26
72.03	31
72.04	27
72.05	25
72.06	25
72.07	17
72.08	22
72.09	23
72.1	18
72.11	16
72.12	25
72.13	17
72.14	23
72.15	30
72.16	19
72.17	18
72.18	24
72.19	20
72.2	32
72.21	19
72.22	19
72.23	25
72.24	19
72.25	28
72.26	21
72.27	20
72.28	15
72.29	22
72.3	27
72.31	31
72.32	24
72.33	16
72.34	24
72.35	21
72.36	23
72.37	22
72.38	23
72.39	22
72.4	27
72.41	25
72.42	17
72.43	26
72.44	15
72.45	15
72.46	25
72.47	24
72.48	30
72.49	16
72.5	22
72.51	18
72.52	19
72.53	21
72.54	15
72.55	22
72.56	18
72.57	21
72.58	14
72.59	15
72.6	20
72.61	21
72.62	29
72.63	24
72.64	15
72.65	19
72.66	19
72.67	22
72.68	23
72.69	26
72.7	18
72.71	22
72.72	22
72.73	18
72.74	27
72.75	24
72.76	18
72.77	23
72.78	28
72.79	21
72.8	23
72.81	26
72.82	29
72.83	24
72.84	24
72.85	16
72.86	29
72.87	29
72.88	20
72.89	29
72.9	25
72.91	25
72.92	22
72.93	19
72.94	25
72.95	21
72.96	15
72.97	25
72.98	20
72.99	16
73	30
73.01	13
73.02	28
73.03	24
73.04	20
73.05	21
73.06	21
73.07	30
73.08	19
73.09	20
73.1	22
73.11	16
73.12	25
73.13	23
73.14	17
73.15	35
73.16	27
73.17	27
73.18	19
73.19	20
73.2	19
73.21	22
73.22	33
73.23	21
73.24	25
73.25	23
73.26	30
73.27	22
73.28	26
73.29	17
73.3	17
73.31	18
73.32	28
73.33	16
73.34	24
73.35	19
73.36	29
73.37	22
73.38	20
73.39	26
73.4	23
73.41	21
73.42	17
73.43	23
73.44	30
73.45	15
73.46	22
73.47	27
73.48	24
73.49	12
73.5	27
73.51	26
73.52	21
73.53	24
73.54	22
73.55	21
73.56	23
73.57	23
73.58	27
73.59	22
73.6	24
73.61	28
73.62	19
73.63	28
73.64	22
73.65	25
73.66	32
73.67	26
73.68	18
73.69	27
73.7	18
73.71	22
73.72	20
73.73	26
73.74	23
73.75	26
73.76	18
73.77	22
73.78	26
73.79	23
73.8	21
73.81	21
73.82	17
73.83	32
73.84	25
73.85	20
73.86	23
73.87	18
73.88	13
73.89	15
73.9	19
73.91	24
73.92	18
73.93	23
73.94	29
73.95	19
73.96	21
73.97	14
73.98	22
73.99	15
74	22
74.01	34
74.02	24
74.03	19
74.04	31
74.05	21
74.06	24
74.07	22
74.08	18
74.09	22
74.1	27
74.11	26
74.12	33
74.13	24
74.14	19
74.15	13
74.16	27
74.17	17
74.18	30
74.19	26
74.2	28
74.21	20
74.22	19
74.23	22
74.24	25
74.25	24
74.26	24
74.27	19
74.28	16
74.29	23
74.3	22
74.31	22
74.32	33
74.33	14
74.34	31
74.35	27
74.36	27
74.37	23
74.38	22
74.39	25
74.4	22
74.41	17
74.42	22
74.43	19
74.44	20
74.45	20
74.46	29
74.47	24
74.48	19
74.49	25
74.5	27
74.51	22
74.52	23
74.53	20
74.54	33
74.55	24
74.56	20
74.57	21
74.58	19
74.59	24
74.6	23
74.61	32
74.62	20
74.63	29
74.64	19
74.65	19
74.66	27
74.67	15
74.68	21
74.69	21
74.7	23
74.71	24
74.72	22
74.73	25
74.74	28
74.75	27
74.76	23
74.77	20
74.78	24
74.79	24
74.8	19
74.81	23
74.82	17
74.83	23
74.84	16
74.85	25
74.86	19
74.87	21
74.88	34
74.89	24
74.9	22
74.91	15
74.92	28
74.93	32
74.94	18
74.95	22
74.96	24
74.97	24
74.98	25
74.99	20
75	20
75.01	27
75.02	27
75.03	21
75.04	26
75.05	22
75.06	32
75.07	21
75.08	22
75.09	28
75.1	21
75.11	20
75.12	26
75.13	23
75.14	22
75.15	19
75.16	21
75.17	21
75.18	23
75.19	24
75.2	25
75.21	16
75.22	27
75.23	20
75.24	29
75.25	21
75.26	24
75.27	22
75.28	24
75.29	19
75.3	18
75.31	20
75.32	22
75.33	14
75.34	24
75.35	20
75.36	17
75.37	18
75.38	28
75.39	24
75.4	21
75.41	22
75.42	28
75.43	19
75.44	26
75.45	23
75.46	14
75.47	25
75.48	30
75.49	19
75.5	24
75.51	24
75.52	24
75.53	30
75.54	16
75.55	21
75.56	22
75.57	26
75.58	25
75.59	22
75.6	23
75.61	20
75.62	20
75.63	24
75.64	17
75.65	23
75.66	20
75.67	19
75.68	18
75.69	17
75.7	17
75.71	19
75.72	21
75.73	31
75.74	20
75.75	15
75.76	20
75.77	24
75.78	13
75.79	22
75.8	21
75.81	14
75.82	19
75.83	26
75.84	22
75.85	29
75.86	16
75.87	31
75.88	21
75.89	18
75.9	14
75.91	30
75.92	11
75.93	23
75.94	21
75.95	20
75.96	17
75.97	24
75.98	28
75.99	22
76	19
76.01	14
76.02	20
76.03	30
76.04	25
76.05	18
76.06	24
76.07	28
76.08	24
76.09	21
76.1	17
76.11	21
76.12	22
76.13	33
76.14	17
76.15	29
76.16	26
76.17	27
76.18	28
76.19	17
76.2	20
76.21	18
76.22	19
76.23	31
76.24	19
76.25	19
76.26	16
76.27	23
76.28	34
76.29	26
76.3	17
76.31	29
76.32	21
76.33	21
76.34	22
76.35	24
76.36	16
76.37	25
76.38	29
76.39	17
76.4	24
76.41	16
76.42	24
76.43	23
76.44	28
76.45	20
76.46	19
76.47	18
76.48	19
76.49	26
76.5	18
76.51	27
76.52	16
76.53	20
76.54	17
76.55	24
76.56	19
76.57	32
76.58	15
76.59	26
76.6	20
76.61	23
76.62	33
76.63	24
76.64	27
76.65	14
76.66	17
76.67	22
76.68	22
76.69	19
76.7	32
76.71	23
76.72	22
76.73	27
76.74	20
76.75	21
76.76	25
76.77	21
76.78	19
76.79	16
76.8	30
76.81	31
76.82	38
76.83	28
76.84	12
76.85	18
76.86	16
76.87	29
76.88	19
76.89	22
76.9	16
76.91	23
76.92	18
76.93	24
76.94	22
76.95	23
76.96	27
76.97	20
76.98	24
76.99	16
77	23
77.01	25
77.02	19
77.03	19
77.04	23
77.05	23
77.06	20
77.07	18
77.08	20
77.09	26
77.1	20
77.11	24
77.12	33
77.13	12
77.14	27
77.15	17
77.16	21
77.17	23
77.18	13
77.19	23
77.2	19
77.21	22
77.22	23
77.23	18
77.24	26
77.25	16
77.26	18
77.27	27
77.28	20
77.29	24
77.3	31
77.31	22
77.32	24
77.33	14
77.34	21
77.35	28
77.36	22
77.37	22
77.38	14
77.39	28
77.4	22
77.41	29
77.42	28
77.43	17
77.44	18
77.45	29
77.46	21
77.47	26
77.48	21
77.49	23
77.5	28
77.51	24
77.52	19
77.53	16
77.54	28
77.55	24
77.56	25
77.57	11
77.58	21
77.59	18
77.6	25
77.61	29
77.62	24
77.63	30
77.64	28
77.65	23
77.66	32
77.67	23
77.68	22
77.69	27
77.7	25
77.71	23
77.72	15
77.73	33
77.74	28
77.75	23
77.76	21
77.77	19
77.78	30
77.79	23
77.8	17
77.81	18
77.82	23
77.83	28
77.84	28
77.85	17
77.86	27
77.87	34
77.88	27
77.89	24
77.9	26
77.91	25
77.92	27
77.93	29
77.94	26
77.95	38
77.96	40
77.97	39
77.98	33
77.99	29
78	38
78.01	44
78.02	43
78.03	47
78.04	57
78.05	65
78.06	65
78.07	84
78.08	73
78.09	79
78.1	103
78.11	84
78.12	128
78.13	106
78.14	120
78.15	128
78.16	120
78.17	129
78.18	152
78.19	131
78.2	137
78.21	121
78.22	128
78.23	121
78.24	136
78.25	88
78.26	109
78.27	101
78.28	103
78.29	89
78.3	93
78.31	79
78.32	85
78.33	79
78.34	78
78.35	108
78.36	79
78.37	101
78.38	105
78.39	87
78.4	88
78.41	77
78.42	68
78.43	87
78.44	71
78.45	92
78.46	71
78.47	66
78.48	63
78.49	54
78.5	59
78.51	47
78.52	45
78.53	42
78.54	44
78.55	39
78.56	52
78.57	36
78.58	45
78.59	36
78.6	29
78.61	48
78.62	38
78.63	23
78.64	21
78.65	38
78.66	30
78.67	38
78.68	34
78.69	18
78.7	26
78.71	24
78.72	19
78.73	34
78.74	18
78.75	28
78.76	25
78.77	21
78.78	23
78.79	17
78.8	19
78.81	17
78.82	22
78.83	28
78.84	21
78.85	29
78.86	17
78.87	27
78.88	17
78.89	28
78.9	24
78.91	25
78.92	19
78.93	26
78.94	23
78.95	31
78.96	21
78.97	18
78.98	16
78.99	25
79	23
79.01	24
79.02	28
79.03	29
79.04	24
79.05	27
79.06	21
79.07	20
79.08	17
79.09	10
79.1	27
79.11	32
79.12	23
79.13	19
79.14	21
79.15	19
79.16	23
79.17	17
79.18	14
79.19	25
79.2	19
79.21	24
79.22	23
79.23	28
79.24	29
79.25	14
79.26	21
79.27	34
79.28	21
79.29	23
79.3	18
79.31	18
79.32	30
79.33	18
79.34	30
79.35	24
79.36	20
79.37	17
79.38	24
79.39	20
79.4	25
79.41	34
79.42	15
79.43	20
79.44	27
79.45	21
79.46	18
79.47	25
79.48	26
79.49	16
79.5	22
79.51	22
79.52	28
79.53	24
79.54	22
79.55	16
79.56	24
79.57	32
79.58	27
79.59	19
79.6	24
79.61	17
79.62	17
79.63	23
79.64	23
79.65	13
79.66	27
79.67	19
79.68	33
79.69	16
79.7	26
79.71	14
79.72	23
79.73	23
79.74	16
79.75	15
79.76	20
79.77	19
79.78	26
79.79	24
79.8	21
79.81	22
79.82	17
79.83	27
79.84	21
79.85	24
79.86	13
79.87	33
79.88	18
79.89	25
79.9	26
79.91	29
79.92	22
79.93	25
79.94	38
79.95	27
79.96	21
79.97	21
79.98	19
79.99	23
80	17
