10	207
10.01	207
10.02	206
10.03	222
10.04	219
10.05	217
10.06	205
10.07	201
10.08	204
10.09	192
10.1	218
10.11	188
10.12	190
10.13	163
10.14	198
10.15	183
10.16	182
10.17	182
10.18	188
10.19	177
10.2	169
10.21	165
10.22	194
10.23	176
10.24	168
10.25	164
10.26	139
10.27	141
10.28	165
10.29	163
10.3	146
10.31	154
10.32	156
10.33	173
10.34	151
10.35	161
10.36	150
10.37	162
10.38	151
10.39	152
10.4	149
10.41	140
10.42	118
10.43	108
10.44	117
10.45	117
10.46	129
10.47	132
10.48	109
10.49	120
10.5	111
10.51	98
10.52	92
10.53	120
10.54	109
10.55	97
10.56	103
10.57	103
10.58	95
10.59	102
10.6	111
10.61	89
10.62	102
10.63	112
10.64	86
10.65	76
10.66	113
10.67	93
10.68	89
10.69	124
10.7	85
10.71	89
10.72	92
10.73	93
10.74	100
10.75	102
10.76	104
10.77	100
10.78	84
10.79	97
10.8	84
10.81	97
10.82	81
10.83	89
10.84	80
10.85	87
10.86	108
10.87	96
10.88	74
10.89	87
10.9	92
10.91	96
10.92	79
10.93	89
10.94	91
10.95	85
10.96	85
10.97	82
10.98	77
10.99	92
11	96
11.01	90
11.02	69
11.03	71
11.04	77
11.05	92
11.06	79
11.07	74
11.08	86
11.09	77
11.1	77
11.11	79
11.12	103
11.13	79
11.14	87
11.15	71
11.16	86
11.17	89
11.18	77
11.19	104
11.2	89
11.21	96
11.22	85
11.23	76
11.24	77
11.25	102
11.26	88
11.27	65
11.28	95
11.29	74
11.3	74
11.31	93
11.32	80
11.33	78
11.34	64
11.35	81
11.36	92
11.37	90
11.38	86
11.39	100
11.4	61
11.41	75
11.42	69
11.43	80
11.44	88
11.45	98
11.46	88
11.47	71
11.48	87
11.49	81
11.5	62
11.51	86
11.52	74
11.53	86
11.54	88
11.55	92
11.56	80
11.57	79
11.58	84
11.59	84
11.6	72
11.61	70
11.62	79
11.63	89
11.64	91
11.65	79
11.66	86
11.67	79
11.68	64
11.69	72
11.7	94
11.71	89
11.72	78
11.73	90
11.74	78
11.75	81
11.76	88
11.77	72
11.78	69
11.79	71
11.8	82
11.81	85
11.82	100
11.83	90
11.84	67
11.85	70
11.86	71
11.87	73
11.88	82
11.89	83
11.9	64
11.91	81
11.92	96
11.93	82
11.94	99
11.95	48
11.96	87
11.97	68
11.98	80
11.99	70
12	82
12.01	73
12.02	78
12.03	62
12.04	93
12.05	88
12.06	71
12.07	77
12.08	68
12.09	72
12.1	82
12.11	82
12.12	89
12.13	95
12.14	65
12.15	85
12.16	88
12.17	69
12.18	86
12.19	76
12.2	87
12.21	71
12.22	77
12.23	64
12.24	72
12.25	80
12.26	67
12.27	75
12.28	74
12.29	75
12.3	72
12.31	72
12.32	90
12.33	75
12.34	98
12.35	85
12.36	70
12.37	87
12.38	82
12.39	94
12.4	89
12.41	91
12.42	66
12.43	85
12.44	96
12.45	92
12.46	80
12.47	71
12.48	78
12.49	68
12.5	86
12.51	83
12.52	73
12.53	82
12.54	81
12.55	87
12.56	79
12.57	76
12.58	80
12.59	73
12.6	74
12.61	95
12.62	85
12.63	65
12.64	79
12.65	60
12.66	94
12.67	93
12.68	83
12.69	76
12.7	68
12.71	94
12.72	79
12.73	91
12.74	87
12.75	82
12.76	105
12.77	82
12.78	87
12.79	106
12.8	77
12.81	86
12.82	91
12.83	88
12.84	96
12.85	86
12.86	116
12.87	89
12.88	103
12.89	89
12.9	89
12.91	74
12.92	77
12.93	77
12.94	95
12.95	88
12.96	99
12.97	95
12.98	91
12.99	86
13	89
13.01	84
13.02	68
13.03	87
13.04	75
13.05	89
13.06	99
13.07	95
13.08	74
13.09	91
13.1	90
13.11	89
13.12	91
13.13	101
13.14	96
13.15	80
13.16	88
13.17	89
13.18	96
13.19	86
13.2	84
13.21	121
13.22	99
13.23	84
13.24	71
13.25	89
13.26	89
13.27	99
13.28	78
13.29	76
13.3	94
13.31	89
13.32	86
13.33	95
13.34	99
13.35	82
13.36	95
13.37	90
13.38	92
13.39	85
13.4	87
13.41	84
13.42	84
13.43	75
13.44	93
13.45	91
13.46	82
13.47	83
13.48	86
13.49	90
13.5	97
13.51	91
13.52	85
13.53	88
13.54	92
13.55	93
13.56	95
13.57	88
13.58	87
13.59	86
13.6	95
13.61	92
13.62	101
13.63	96
13.64	90
13.65	95
13.66	85
13.67	91
13.68	91
13.69	99
13.7	105
13.71	89
13.72	92
13.73	104
13.74	88
13.75	84
13.76	96
13.77	89
13.78	102
13.79	90
13.8	113
13.81	84
13.82	85
13.83	95
13.84	101
13.85	95
13.86	98
13.87	84
13.88	69
13.89	79
13.9	91
13.91	82
13.92	88
13.93	109
13.94	79
13.95	93
13.96	97
13.97	104
13.98	98
13.99	102
14	76
14.01	76
14.02	96
14.03	89
14.04	75
14.05	94
14.06	100
14.07	74
14.08	85
14.09	89
14.1	103
14.11	91
14.12	97
14.13	84
14.14	96
14.15	91
14.16	86
14.17	67
14.18	95
14.19	94
14.2	99
14.21	101
14.22	92
14.23	84
14.24	101
14.25	71
14.26	84
14.27	89
14.28	85
14.29	96
14.3	112
14.31	92
14.32	78
14.33	94
14.34	91
14.35	94
14.36	100
14.37	92
14.38	89
14.39	80
14.4	105
14.41	103
14.42	98
14.43	92
14.44	85
14.45	88
14.46	95
14.47	96
14.48	112
14.49	91
14.5	88
14.51	86
14.52	74
14.53	78
14.54	97
14.55	87
14.56	91
14.57	94
14.58	88
14.59	113
14.6	100
14.61	94
14.62	85
14.63	88
14.64	86
14.65	86
14.66	112
14.67	88
14.68	89
14.69	83
14.7	113
14.71	85
14.72	86
14.73	107
14.74	83
14.75	78
14.76	82
14.77	80
14.78	79
14.79	80
14.8	83
14.81	87
14.82	92
14.83	75
14.84	88
14.85	91
14.86	83
14.87	104
14.88	85
14.89	99
14.9	77
14.91	82
14.92	81
14.93	95
14.94	94
14.95	100
14.96	92
14.97	92
14.98	94
14.99	102
15	94
15.01	78
15.02	88
15.03	95
15.04	98
15.05	75
15.06	91
15.07	97
15.08	96
15.09	79
15.1	85
15.11	81
15.12	71
15.13	90
15.14	76
15.15	79
15.16	86
15.17	95
15.18	74
15.19	92
15.2	101
15.21	86
15.22	85
15.23	77
15.24	91
15.25	85
15.26	85
15.27	109
15.28	86
15.29	96
15.3	102
15.31	88
15.32	94
15.33	90
15.34	100
15.35	96
15.36	101
15.37	109
15.38	102
15.39	94
15.4	97
15.41	96
15.42	111
15.43	97
15.44	98
15.45	90
15.46	100
15.47	101
15.48	94
15.49	94
15.5	99
15.51	87
15.52	100
15.53	86
15.54	108
15.55	98
15.56	88
15.57	95
15.58	99
15.59	108
15.6	93
15.61	81
15.62	84
15.63	107
15.64	89
15.65	89
15.66	93
15.67	84
15.68	98
15.69	92
15.7	97
15.71	84
15.72	93
15.73	81
15.74	100
15.75	76
15.76	100
15.77	98
15.78	113
15.79	115
15.8	93
15.81	87
15.82	84
15.83	114
15.84	96
15.85	112
15.86	93
15.87	92
15.88	101
15.89	84
15.9	93
15.91	90
15.92	93
15.93	89
15.94	93
15.95	95
15.96	92
15.97	86
15.98	92
15.99	96
16	108
16.01	109
16.02	91
16.03	105
16.04	113
16.05	103
16.06	92
16.07	80
16.08	100
16.09	91
16.1	92
16.11	112
16.12	92
16.13	105
16.14	102
16.15	104
16.16	99
16.17	99
16.18	89
16.19	87
16.2	106
16.21	79
16.22	94
16.23	109
16.24	83
16.25	89
16.26	104
16.27	99
16.28	99
16.29	101
16.3	110
16.31	99
16.32	100
16.33	91
16.34	89
16.35	94
16.36	86
16.37	96
16.38	118
16.39	98
16.4	108
16.41	95
16.42	104
16.43	91
16.44	89
16.45	66
16.46	110
16.47	98
16.48	94
16.49	117
16.5	89
16.51	99
16.52	109
16.53	96
16.54	98
16.55	109
16.56	89
16.57	91
16.58	114
16.59	103
16.6	115
16.61	99
16.62	94
16.63	96
16.64	93
16.65	84
16.66	96
16.67	102
16.68	94
16.69	111
16.7	96
16.71	100
16.72	100
16.73	104
16.74	106
16.75	108
16.76	92
16.77	120
16.78	100
16.79	91
16.8	86
16.81	101
16.82	94
16.83	95
16.84	94
16.85	98
16.86	110
16.87	90
16.88	117
16.89	89
16.9	119
16.91	96
16.92	112
16.93	116
16.94	110
16.95	97
16.96	116
16.97	101
16.98	96
16.99	96
17	101
17.01	109
17.02	107
17.03	118
17.04	98
17.05	117
17.06	112
17.07	138
17.08	107
17.09	108
17.1	102
17.11	104
17.12	116
17.13	98
17.14	123
17.15	116
17.16	116
17.17	115
17.18	93
17.19	115
17.2	108
17.21	132
17.22	115
17.23	124
17.24	134
17.25	116
17.26	106
17.27	112
17.28	128
17.29	132
17.3	107
17.31	128
17.32	137
17.33	133
17.34	131
17.35	147
17.36	134
17.37	111
17.38	130
17.39	138
17.4	157
17.41	108
17.42	137
17.43	130
17.44	107
17.45	108
17.46	104
17.47	114
17.48	129
17.49	126
17.5	113
17.51	128
17.52	110
17.53	132
17.54	132
17.55	145
17.56	132
17.57	142
17.58	116
17.59	147
17.6	139
17.61	166
17.62	158
17.63	178
17.64	177
17.65	204
17.66	195
17.67	192
17.68	237
17.69	195
17.7	221
17.71	207
17.72	225
17.73	200
17.74	195
17.75	192
17.76	190
17.77	195
17.78	175
17.79	153
17.8	161
17.81	161
17.82	135
17.83	132
17.84	126
17.85	144
17.86	136
17.87	130
17.88	114
17.89	126
17.9	116
17.91	110
17.92	105
17.93	125
17.94	126
17.95	114
17.96	93
17.97	101
17.98	115
17.99	111
18	125
18.01	108
18.02	125
18.03	131
18.04	104
18.05	90
18.06	99
18.07	100
18.08	113
18.09	99
18.1	115
18.11	128
18.12	118
18.13	93
18.14	119
18.15	124
18.16	111
18.17	97
18.18	103
18.19	113
18.2	101
18.21	109
18.22	113
18.23	102
18.24	102
18.25	121
18.26	119
18.27	109
18.28	100
18.29	104
18.3	86
18.31	102
18.32	101
18.33	110
18.34	99
18.35	105
18.36	108
18.37	98
18.38	127
18.39	98
18.4	120
18.41	102
18.42	77
18.43	94
18.44	104
18.45	100
18.46	102
18.47	101
18.48	112
18.49	113
18.5	112
18.51	106
18.52	92
18.53	104
18.54	119
18.55	96
18.56	109
18.57	97
18.58	98
18.59	113
18.6	118
18.61	103
18.62	123
18.63	89
18.64	93
18.65	85
18.66	90
18.67	88
18.68	120
18.69	98
18.7	98
18.71	97
18.72	98
18.73	96
18.74	108
18.75	93
18.76	87
18.77	84
18.78	109
18.79	97
18.8	102
18.81	85
18.82	107
18.83	93
18.84	119
18.85	101
18.86	100
18.87	106
18.88	98
18.89	95
18.9	101
18.91	109
18.92	114
18.93	100
18.94	100
18.95	110
18.96	95
18.97	92
18.98	109
18.99	113
19	107
19.01	113
19.02	111
19.03	98
19.04	102
19.05	105
19.06	137
19.07	94
19.08	80
19.09	88
19.1	100
19.11	95
19.12	104
19.13	101
19.14	99
19.15	94
19.16	115
19.17	102
19.18	105
19.19	106
19.2	114
19.21	109
19.22	113
19.23	100
19.24	131
19.25	101
19.26	108
19.27	114
19.28	120
19.29	102
19.3	103
19.31	110
19.32	110
19.33	98
19.34	114
19.35	94
19.36	87
19.37	115
19.38	118
19.39	102
19.4	109
19.41	120
19.42	107
19.43	101
19.44	111
19.45	118
19.46	113
19.47	146
19.48	139
19.49	156
19.5	154
19.51	163
19.52	168
19.53	179
19.54	183
19.55	190
19.56	207
19.57	246
19.58	208
19.59	204
19.6	248
19.61	272
19.62	219
19.63	204
19.64	246
19.65	216
19.66	225
19.67	229
19.68	206
19.69	192
19.7	175
19.71	177
19.72	147
19.73	149
19.74	112
19.75	135
19.76	129
19.77	131
19.78	120
19.79	136
19.8	118
19.81	116
19.82	104
19.83	113
19.84	118
19.85	113
19.86	105
19.87	120
19.88	114
19.89	113
19.9	106
19.91	102
19.92	105
19.93	92
19.94	115
19.95	98
19.96	133
19.97	118
19.98	112
19.99	127
20	102
20.01	114
20.02	100
20.03	108
20.04	113
20.05	102
20.06	103
20.07	112
20.08	131
20.09	100
20.1	100
20.11	99
20.12	119
20.13	126
20.14	106
20.15	102
20.16	104
20.17	98
20.18	95
20.19	127
20.2	114
20.21	104
20.22	113
20.23	95
20.24	99
20.25	117
20.26	98
20.27	86
20.28	106
20.29	117
20.3	106
20.31	102
20.32	109
20.33	102
20.34	106
20.35	94
20.36	105
20.37	93
20.38	107
20.39	98
20.4	112
20.41	100
20.42	113
20.43	114
20.44	83
20.45	114
20.46	97
20.47	103
20.48	116
20.49	89
20.5	114
20.51	111
20.52	125
20.53	99
20.54	91
20.55	97
20.56	113
20.57	117
20.58	102
20.59	104
20.6	93
20.61	95
20.62	89
20.63	113
20.64	82
20.65	112
20.66	94
20.67	112
20.68	106
20.69	104
20.7	116
20.71	102
20.72	122
20.73	102
20.74	103
20.75	111
20.76	124
20.77	97
20.78	97
20.79	108
20.8	123
20.81	99
20.82	118
20.83	133
20.84	94
20.85	106
20.86	97
20.87	120
20.88	100
20.89	110
20.9	99
20.91	108
20.92	102
20.93	99
20.94	109
20.95	96
20.96	107
20.97	107
20.98	111
20.99	105
21	116
21.01	103
21.02	114
21.03	104
21.04	101
21.05	127
21.06	114
21.07	88
21.08	119
21.09	102
21.1	101
21.11	101
21.12	110
21.13	105
21.14	91
21.15	98
21.16	126
21.17	103
21.18	106
21.19	96
21.2	101
21.21	101
21.22	105
21.23	99
21.24	93
21.25	114
21.26	103
21.27	116
21.28	137
21.29	106
21.3	101
21.31	93
21.32	116
21.33	108
21.34	109
21.35	98
21.36	84
21.37	93
21.38	123
21.39	79
21.4	102
21.41	106
21.42	93
21.43	77
21.44	100
21.45	92
21.46	84
21.47	106
21.48	112
21.49	112
21.5	98
21.51	105
21.52	104
21.53	105
21.54	99
21.55	120
21.56	102
21.57	91
21.58	100
21.59	101
21.6	124
21.61	98
21.62	103
21.63	99
21.64	104
21.65	118
21.66	98
21.67	115
21.68	99
21.69	108
21.7	87
21.71	116
21.72	121
21.73	106
21.74	109
21.75	98
21.76	132
21.77	85
21.78	111
21.79	92
21.8	101
21.81	114
21.82	107
21.83	119
21.84	111
21.85	104
21.86	109
21.87	111
21.88	110
21.89	107
21.9	93
21.91	102
21.92	108
21.93	89
21.94	100
21.95	87
21.96	101
21.97	125
21.98	126
21.99	130
22	90
22.01	109
22.02	98
22.03	97
22.04	109
22.05	109
22.06	101
22.07	114
22.08	113
22.09	122
22.1	100
22.11	96
22.12	101
22.13	106
22.14	104
22.15	102
22.16	122
22.17	109
22.18	85
22.19	112
22.2	130
22.21	119
22.22	116
22.23	106
22.24	133
22.25	122
22.26	124
22.27	95
22.28	138
22.29	109
22.3	120
22.31	142
22.32	122
22.33	117
22.34	123
22.35	148
22.36	135
22.37	120
22.38	133
22.39	132
22.4	132
22.41	118
22.42	116
22.43	134
22.44	123
22.45	131
22.46	135
22.47	150
22.48	130
22.49	147
22.5	133
22.51	128
22.52	123
22.53	121
22.54	118
22.55	124
22.56	103
22.57	117
22.58	130
22.59	129
22.6	122
22.61	137
22.62	138
22.63	117
22.64	112
22.65	116
22.66	112
22.67	110
22.68	102
22.69	143
22.7	107
22.71	124
22.72	110
22.73	111
22.74	110
22.75	115
22.76	148
22.77	120
22.78	125
22.79	125
22.8	115
22.81	131
22.82	125
22.83	88
22.84	131
22.85	110
22.86	107
22.87	122
22.88	113
22.89	133
22.9	97
22.91	131
22.92	115
22.93	129
22.94	125
22.95	126
22.96	137
22.97	137
22.98	144
22.99	122
23	137
23.01	141
23.02	128
23.03	126
23.04	139
23.05	143
23.06	137
23.07	130
23.08	138
23.09	151
23.1	157
23.11	153
23.12	140
23.13	155
23.14	142
23.15	153
23.16	153
23.17	166
23.18	174
23.19	157
23.2	135
23.21	160
23.22	148
23.23	155
23.24	154
23.25	131
23.26	164
23.27	151
23.28	128
23.29	144
23.3	151
23.31	137
23.32	161
23.33	135
23.34	120
23.35	118
23.36	117
23.37	137
23.38	159
23.39	134
23.4	112
23.41	145
23.42	141
23.43	130
23.44	138
23.45	135
23.46	126
23.47	127
23.48	120
23.49	121
23.5	119
23.51	139
23.52	140
23.53	122
23.54	128
23.55	124
23.56	132
23.57	133
23.58	111
23.59	125
23.6	110
23.61	125
23.62	130
23.63	125
23.64	104
23.65	119
23.66	114
23.67	116
23.68	137
23.69	121
23.7	132
23.71	104
23.72	109
23.73	125
23.74	112
23.75	97
23.76	112
23.77	107
23.78	104
23.79	125
23.8	109
23.81	112
23.82	111
23.83	114
23.84	101
23.85	88
23.86	108
23.87	103
23.88	101
23.89	116
23.9	114
23.91	105
23.92	100
23.93	106
23.94	112
23.95	112
23.96	111
23.97	108
23.98	108
23.99	103
24	99
24.01	84
24.02	112
24.03	121
24.04	96
24.05	95
24.06	107
24.07	127
24.08	103
24.09	118
24.1	113
24.11	87
24.12	98
24.13	93
24.14	111
24.15	107
24.16	113
24.17	114
24.18	106
24.19	115
24.2	135
24.21	88
24.22	104
24.23	109
24.24	98
24.25	109
24.26	97
24.27	103
24.28	115
24.29	114
24.3	111
24.31	110
24.32	96
24.33	123
24.34	102
24.35	98
24.36	91
24.37	112
24.38	115
24.39	94
24.4	105
24.41	91
24.42	132
24.43	102
24.44	110
24.45	118
24.46	123
24.47	105
24.48	93
24.49	129
24.5	103
24.51	91
24.52	94
24.53	115
24.54	117
24.55	108
24.56	108
24.57	121
24.58	95
24.59	94
24.6	116
24.61	109
24.62	107
24.63	112
24.64	114
24.65	109
24.66	94
24.67	111
24.68	114
24.69	97
24.7	95
24.71	117
24.72	93
24.73	116
24.74	108
24.75	110
24.76	84
24.77	88
24.78	90
24.79	87
24.8	94
24.81	103
24.82	146
24.83	112
24.84	97
24.85	108
24.86	106
24.87	105
24.88	109
24.89	99
24.9	97
24.91	113
24.92	130
24.93	95
24.94	99
24.95	118
24.96	115
24.97	90
24.98	117
24.99	118
25	104
25.01	101
25.02	109
25.03	109
25.04	88
25.05	104
25.06	125
25.07	99
25.08	120
25.09	111
25.1	94
25.11	128
25.12	93
25.13	100
25.14	106
25.15	102
25.16	83
25.17	103
25.18	108
25.19	84
25.2	100
25.21	100
25.22	108
25.23	116
25.24	102
25.25	97
25.26	115
25.27	113
25.28	102
25.29	109
25.3	111
25.31	113
25.32	105
25.33	110
25.34	96
25.35	90
25.36	109
25.37	113
25.38	111
25.39	106
25.4	114
25.41	115
25.42	103
25.43	111
25.44	101
25.45	101
25.46	114
25.47	100
25.48	105
25.49	101
25.5	113
25.51	120
25.52	112
25.53	105
25.54	109
25.55	116
25.56	126
25.57	104
25.58	108
25.59	96
25.6	113
25.61	90
25.62	125
25.63	111
25.64	123
25.65	106
25.66	115
25.67	121
25.68	129
25.69	112
25.7	103
25.71	120
25.72	102
25.73	135
25.74	100
25.75	135
25.76	133
25.77	108
25.78	137
25.79	123
25.8	127
25.81	139
25.82	121
25.83	133
25.84	121
25.85	125
25.86	129
25.87	122
25.88	131
25.89	144
25.9	125
25.91	154
25.92	150
25.93	131
25.94	151
25.95	137
25.96	163
25.97	149
25.98	133
25.99	147
26	148
26.01	168
26.02	154
26.03	151
26.04	131
26.05	170
26.06	169
26.07	168
26.08	167
26.09	166
26.1	169
26.11	152
26.12	147
26.13	154
26.14	163
26.15	163
26.16	158
26.17	180
26.18	171
26.19	181
26.2	161
26.21	205
26.22	195
26.23	168
26.24	187
26.25	180
26.26	187
26.27	158
26.28	179
26.29	165
26.3	163
26.31	181
26.32	190
26.33	175
26.34	188
26.35	151
26.36	169
26.37	174
26.38	163
26.39	167
26.4	152
26.41	160
26.42	152
26.43	141
26.44	161
26.45	158
26.46	174
26.47	136
26.48	153
26.49	143
26.5	165
26.51	134
26.52	160
26.53	144
26.54	165
26.55	146
26.56	154
26.57	173
26.58	142
26.59	146
26.6	122
26.61	133
26.62	160
26.63	141
26.64	146
26.65	126
26.66	141
26.67	137
26.68	128
26.69	131
26.7	133
26.71	151
26.72	131
26.73	139
26.74	142
26.75	134
26.76	159
26.77	128
26.78	151
26.79	147
26.8	134
26.81	142
26.82	123
26.83	125
26.84	136
26.85	138
26.86	137
26.87	140
26.88	123
26.89	136
26.9	124
26.91	129
26.92	111
26.93	127
26.94	93
26.95	133
26.96	149
26.97	137
26.98	120
26.99	108
27	125
27.01	137
27.02	118
27.03	114
27.04	121
27.05	124
27.06	136
27.07	116
27.08	126
27.09	149
27.1	130
27.11	142
27.12	118
27.13	144
27.14	134
27.15	148
27.16	149
27.17	118
27.18	146
27.19	127
27.2	120
27.21	116
27.22	115
27.23	126
27.24	111
27.25	106
27.26	113
27.27	111
27.28	123
27.29	108
27.3	100
27.31	101
27.32	105
27.33	127
27.34	109
27.35	114
27.36	104
27.37	107
27.38	106
27.39	103
27.4	121
27.41	116
27.42	108
27.43	111
27.44	108
27.45	103
27.46	124
27.47	91
27.48	128
27.49	100
27.5	109
27.51	100
27.52	92
27.53	92
27.54	99
27.55	122
27.56	115
27.57	115
27.58	116
27.59	103
27.6	106
27.61	86
27.62	90
27.63	103
27.64	99
27.65	79
27.66	90
27.67	103
27.68	129
27.69	112
27.7	105
27.71	112
27.72	99
27.73	105
27.74	84
27.75	100
27.76	102
27.77	104
27.78	98
27.79	94
27.8	86
27.81	90
27.82	104
27.83	96
27.84	104
27.85	95
27.86	95
27.87	89
27.88	109
27.89	98
27.9	105
27.91	84
27.92	105
27.93	93
27.94	100
27.95	102
27.96	104
27.97	105
27.98	106
27.99	103
28	112
28.01	107
28.02	101
28.03	109
28.04	93
28.05	100
28.06	102
28.07	98
28.08	86
28.09	81
28.1	125
28.11	96
28.12	117
28.13	103
28.14	88
28.15	103
28.16	106
28.17	89
28.18	106
28.19	95
28.2	89
28.21	102
28.22	111
28.23	112
28.24	107
28.25	106
28.26	99
28.27	101
28.28	115
28.29	128
28.3	142
28.31	138
28.32	102
28.33	118
28.34	131
28.35	155
28.36	127
28.37	128
28.38	158
28.39	129
28.4	148
28.41	140
28.42	153
28.43	142
28.44	146
28.45	163
28.46	128
28.47	141
28.48	146
28.49	137
28.5	123
28.51	143
28.52	126
28.53	143
28.54	110
28.55	118
28.56	105
28.57	107
28.58	109
28.59	117
28.6	101
28.61	110
28.62	102
28.63	116
28.64	100
28.65	113
28.66	107
28.67	118
28.68	101
28.69	98
28.7	107
28.71	96
28.72	109
28.73	119
28.74	95
28.75	100
28.76	116
28.77	98
28.78	96
28.79	88
28.8	121
28.81	105
28.82	92
28.83	102
28.84	125
28.85	87
28.86	79
28.87	98
28.88	110
28.89	98
28.9	105
28.91	113
28.92	107
28.93	110
28.94	107
28.95	98
28.96	106
28.97	112
28.98	106
28.99	94
29	87
29.01	109
29.02	84
29.03	114
29.04	108
29.05	116
29.06	103
29.07	108
29.08	104
29.09	90
29.1	106
29.11	76
29.12	92
29.13	123
29.14	107
29.15	94
29.16	81
29.17	127
29.18	102
29.19	121
29.2	105
29.21	129
29.22	112
29.23	111
29.24	105
29.25	88
29.26	96
29.27	133
29.28	108
29.29	97
29.3	114
29.31	138
29.32	139
29.33	102
29.34	118
29.35	123
29.36	131
29.37	107
29.38	113
29.39	110
29.4	105
29.41	111
29.42	100
29.43	109
29.44	114
29.45	114
29.46	98
29.47	110
29.48	107
29.49	129
29.5	127
29.51	112
29.52	121
29.53	132
29.54	113
29.55	119
29.56	121
29.57	139
29.58	108
29.59	113
29.6	120
29.61	95
29.62	121
29.63	102
29.64	105
29.65	103
29.66	112
29.67	101
29.68	104
29.69	107
29.7	134
29.71	110
29.72	127
29.73	121
29.74	103
29.75	130
29.76	98
29.77	100
29.78	114
29.79	138
29.8	110
29.81	139
29.82	112
29.83	125
29.84	113
29.85	107
29.86	117
29.87	118
29.88	105
29.89	104
29.9	116
29.91	127
29.92	131
29.93	132
29.94	140
29.95	97
29.96	116
29.97	124
29.98	115
29.99	127
30	144
30.01	121
30.02	123
30.03	147
30.04	123
30.05	136
30.06	135
30.07	126
30.08	126
30.09	156
30.1	140
30.11	147
30.12	111
30.13	140
30.14	141
30.15	157
30.16	165
30.17	131
30.18	142
30.19	139
30.2	137
30.21	129
30.22	153
30.23	132
30.24	133
30.25	130
30.26	149
30.27	130
30.28	144
30.29	142
30.3	140
30.31	156
30.32	165
30.33	150
30.34	152
30.35	179
30.36	168
30.37	163
30.38	155
30.39	174
30.4	150
30.41	157
30.42	126
30.43	162
30.44	165
30.45	178
30.46	176
30.47	177
30.48	186
30.49	162
30.5	156
30.51	186
30.52	164
30.53	171
30.54	179
30.55	173
30.56	156
30.57	179
30.58	170
30.59	211
30.6	173
30.61	186
30.62	165
30.63	205
30.64	195
30.65	200
30.66	224
30.67	217
30.68	231
30.69	194
30.7	212
30.71	265
30.72	225
30.73	208
30.74	235
30.75	221
30.76	232
30.77	232
30.78	228
30.79	255
30.8	244
30.81	255
30.82	269
30.83	260
30.84	234
30.85	281
30.86	272
30.87	252
30.88	255
30.89	283
30.9	283
30.91	263
30.92	256
30.93	290
30.94	285
30.95	267
30.96	252
30.97	243
30.98	246
30.99	267
31	249
31.01	272
31.02	264
31.03	210
31.04	242
31.05	231
31.06	251
31.07	245
31.08	270
31.09	243
31.1	220
31.11	205
31.12	223
31.13	198
31.14	230
31.15	223
31.16	209
31.17	214
31.18	198
31.19	201
31.2	206
31.21	210
31.22	218
31.23	219
31.24	185
31.25	188
31.26	189
31.27	197
31.28	194
31.29	195
31.3	215
31.31	183
31.32	188
31.33	180
31.34	177
31.35	185
31.36	193
31.37	186
31.38	188
31.39	210
31.4	191
31.41	165
31.42	166
31.43	184
31.44	165
31.45	167
31.46	163
31.47	166
31.48	182
31.49	152
31.5	159
31.51	170
31.52	176
31.53	146
31.54	162
31.55	177
31.56	164
31.57	158
31.58	182
31.59	187
31.6	159
31.61	189
31.62	165
31.63	149
31.64	152
31.65	178
31.66	164
31.67	171
31.68	159
31.69	159
31.7	145
31.71	181
31.72	172
31.73	165
31.74	168
31.75	188
31.76	169
31.77	189
31.78	169
31.79	169
31.8	176
31.81	199
31.82	209
31.83	197
31.84	207
31.85	198
31.86	189
31.87	175
31.88	223
31.89	210
31.9	226
31.91	195
31.92	202
31.93	222
31.94	182
31.95	217
31.96	212
31.97	210
31.98	192
31.99	212
32	220
32.01	200
32.02	220
32.03	204
32.04	196
32.05	196
32.06	184
32.07	216
32.08	199
32.09	178
32.1	206
32.11	175
32.12	186
32.13	198
32.14	164
32.15	187
32.16	188
32.17	142
32.18	158
32.19	157
32.2	156
32.21	147
32.22	168
32.23	182
32.24	150
32.25	141
32.26	145
32.27	147
32.28	163
32.29	161
32.3	154
32.31	163
32.32	148
32.33	162
32.34	131
32.35	137
32.36	170
32.37	148
32.38	144
32.39	146
32.4	161
32.41	136
32.42	117
32.43	131
32.44	147
32.45	138
32.46	142
32.47	130
32.48	132
32.49	118
32.5	140
32.51	128
32.52	130
32.53	126
32.54	146
32.55	120
32.56	121
32.57	113
32.58	136
32.59	122
32.6	143
32.61	123
32.62	126
32.63	128
32.64	117
32.65	117
32.66	131
32.67	153
32.68	130
32.69	145
32.7	148
32.71	143
32.72	115
32.73	132
32.74	152
32.75	142
32.76	155
32.77	149
32.78	151
32.79	147
32.8	149
32.81	129
32.82	153
32.83	129
32.84	159
32.85	155
32.86	140
32.87	134
32.88	158
32.89	155
32.9	169
32.91	175
32.92	166
32.93	170
32.94	181
32.95	167
32.96	151
32.97	168
32.98	163
32.99	162
33	175
33.01	151
33.02	157
33.03	154
33.04	167
33.05	167
33.06	175
33.07	162
33.08	151
33.09	142
33.1	150
33.11	131
33.12	140
33.13	127
33.14	142
33.15	139
33.16	177
33.17	150
33.18	127
33.19	147
33.2	142
33.21	137
33.22	126
33.23	148
33.24	119
33.25	134
33.26	114
33.27	144
33.28	131
33.29	137
33.3	141
33.31	142
33.32	119
33.33	148
33.34	140
33.35	140
33.36	137
33.37	142
33.38	127
33.39	154
33.4	150
33.41	140
33.42	142
33.43	151
33.44	158
33.45	153
33.46	140
33.47	159
33.48	136
33.49	123
33.5	123
33.51	141
33.52	126
33.53	122
33.54	126
33.55	134
33.56	141
33.57	141
33.58	102
33.59	134
33.6	121
33.61	121
33.62	127
33.63	120
33.64	115
33.65	107
33.66	129
33.67	147
33.68	117
33.69	116
33.7	117
33.71	116
33.72	115
33.73	119
33.74	116
33.75	112
33.76	117
33.77	117
33.78	111
33.79	124
33.8	124
33.81	116
33.82	102
33.83	131
33.84	107
33.85	119
33.86	133
33.87	134
33.88	103
33.89	109
33.9	99
33.91	107
33.92	98
33.93	124
33.94	105
33.95	133
33.96	120
33.97	124
33.98	99
33.99	104
34	116
34.01	109
34.02	110
34.03	115
34.04	127
34.05	118
34.06	119
34.07	106
34.08	109
34.09	116
34.1	118
34.11	106
34.12	117
34.13	102
34.14	115
34.15	109
34.16	98
34.17	90
34.18	111
34.19	104
34.2	109
34.21	107
34.22	98
34.23	100
34.24	113
34.25	94
34.26	105
34.27	100
34.28	99
34.29	115
34.3	112
34.31	98
34.32	99
34.33	118
34.34	104
34.35	116
34.36	91
34.37	101
34.38	110
34.39	116
34.4	101
34.41	101
34.42	111
34.43	101
34.44	103
34.45	109
34.46	95
34.47	124
34.48	92
34.49	107
34.5	108
34.51	111
34.52	108
34.53	95
34.54	122
34.55	113
34.56	104
34.57	122
34.58	104
34.59	116
34.6	108
34.61	107
34.62	113
34.63	105
34.64	94
34.65	119
34.66	119
34.67	90
34.68	97
34.69	82
34.7	107
34.71	112
34.72	91
34.73	102
34.74	86
34.75	96
34.76	95
34.77	88
34.78	99
34.79	102
34.8	99
34.81	82
34.82	94
34.83	92
34.84	74
34.85	97
34.86	93
34.87	85
34.88	101
34.89	81
34.9	90
34.91	88
34.92	91
34.93	78
34.94	78
34.95	84
34.96	74
34.97	95
34.98	81
34.99	83
35	75
35.01	95
35.02	82
35.03	88
35.04	79
35.05	74
35.06	87
35.07	97
35.08	98
35.09	77
35.1	75
35.11	75
35.12	79
35.13	81
35.14	82
35.15	97
35.16	77
35.17	97
35.18	80
35.19	73
35.2	77
35.21	71
35.22	76
35.23	87
35.24	70
35.25	73
35.26	93
35.27	84
35.28	91
35.29	80
35.3	81
35.31	94
35.32	85
35.33	76
35.34	77
35.35	74
35.36	92
35.37	86
35.38	63
35.39	96
35.4	92
35.41	88
35.42	90
35.43	68
35.44	70
35.45	81
35.46	82
35.47	91
35.48	76
35.49	85
35.5	71
35.51	92
35.52	117
35.53	85
35.54	101
35.55	80
35.56	85
35.57	88
35.58	62
35.59	87
35.6	75
35.61	77
35.62	93
35.63	87
35.64	84
35.65	95
35.66	76
35.67	81
35.68	83
35.69	60
35.7	88
35.71	89
35.72	77
35.73	88
35.74	74
35.75	83
35.76	74
35.77	64
35.78	77
35.79	80
35.8	69
35.81	70
35.82	82
35.83	71
35.84	85
35.85	85
35.86	100
35.87	77
35.88	66
35.89	72
35.9	86
35.91	72
35.92	68
35.93	73
35.94	64
35.95	82
35.96	63
35.97	74
35.98	73
35.99	77
36	86
36.01	70
36.02	58
36.03	75
36.04	84
36.05	62
36.06	79
36.07	72
36.08	82
36.09	88
36.1	74
36.11	90
36.12	79
36.13	90
36.14	68
36.15	76
36.16	76
36.17	86
36.18	59
36.19	75
36.2	83
36.21	76
36.22	74
36.23	76
36.24	75
36.25	77
36.26	80
36.27	61
36.28	71
36.29	75
36.3	79
36.31	82
36.32	78
36.33	87
36.34	62
36.35	75
36.36	76
36.37	57
36.38	73
36.39	64
36.4	80
36.41	85
36.42	70
36.43	63
36.44	79
36.45	74
36.46	82
36.47	88
36.48	82
36.49	78
36.5	79
36.51	67
36.52	71
36.53	82
36.54	72
36.55	62
36.56	64
36.57	90
36.58	62
36.59	64
36.6	78
36.61	75
36.62	83
36.63	69
36.64	57
36.65	94
36.66	78
36.67	75
36.68	88
36.69	70
36.7	76
36.71	83
36.72	71
36.73	66
36.74	93
36.75	83
36.76	76
36.77	92
36.78	68
36.79	74
36.8	68
36.81	76
36.82	76
36.83	72
36.84	69
36.85	82
36.86	98
36.87	57
36.88	69
36.89	71
36.9	84
36.91	72
36.92	74
36.93	82
36.94	77
36.95	72
36.96	86
36.97	85
36.98	77
36.99	89
37	85
37.01	89
37.02	70
37.03	60
37.04	67
37.05	89
37.06	91
37.07	80
37.08	101
37.09	75
37.1	78
37.11	97
37.12	79
37.13	87
37.14	100
37.15	84
37.16	83
37.17	95
37.18	78
37.19	95
37.2	86
37.21	86
37.22	76
37.23	100
37.24	86
37.25	67
37.26	92
37.27	90
37.28	90
37.29	82
37.3	88
37.31	91
37.32	93
37.33	65
37.34	76
37.35	63
37.36	70
37.37	66
37.38	82
37.39	85
37.4	67
37.41	69
37.42	76
37.43	79
37.44	64
37.45	67
37.46	83
37.47	76
37.48	74
37.49	78
37.5	88
37.51	92
37.52	92
37.53	66
37.54	75
37.55	64
37.56	67
37.57	65
37.58	73
37.59	83
37.6	74
37.61	71
37.62	68
37.63	73
37.64	81
37.65	73
37.66	65
37.67	72
37.68	86
37.69	66
37.7	87
37.71	77
37.72	56
37.73	85
37.74	74
37.75	84
37.76	65
37.77	74
37.78	74
37.79	64
37.8	82
37.81	59
37.82	77
37.83	78
37.84	82
37.85	70
37.86	67
37.87	61
37.88	74
37.89	77
37.9	64
37.91	71
37.92	76
37.93	87
37.94	67
37.95	67
37.96	76
37.97	69
37.98	75
37.99	96
38	78
38.01	81
38.02	80
38.03	78
38.04	94
38.05	77
38.06	96
38.07	70
38.08	81
38.09	84
38.1	81
38.11	91
38.12	100
38.13	72
38.14	94
38.15	87
38.16	103
38.17	103
38.18	112
38.19	94
38.2	130
38.21	126
38.22	160
38.23	166
38.24	160
38.25	189
38.26	199
38.27	229
38.28	256
38.29	253
38.3	247
38.31	328
38.32	358
38.33	410
38.34	477
38.35	533
38.36	598
38.37	763
38.38	888
38.39	1011
38.4	928
38.41	995
38.42	1076
38.43	1043
38.44	1018
38.45	992
38.46	987
38.47	929
38.48	882
38.49	838
38.5	822
38.51	726
38.52	672
38.53	666
38.54	622
38.55	521
38.56	498
38.57	373
38.58	373
38.59	333
38.6	277
38.61	238
38.62	188
38.63	176
38.64	162
38.65	144
38.66	138
38.67	105
38.68	137
38.69	101
38.7	115
38.71	113
38.72	106
38.73	106
38.74	104
38.75	102
38.76	81
38.77	86
38.78	97
38.79	73
38.8	103
38.81	83
38.82	70
38.83	84
38.84	87
38.85	91
38.86	80
38.87	87
38.88	89
38.89	94
38.9	95
38.91	77
38.92	86
38.93	77
38.94	91
38.95	58
38.96	73
38.97	81
38.98	89
38.99	97
39	80
39.01	91
39.02	83
39.03	86
39.04	92
39.05	93
39.06	77
39.07	88
39.08	69
39.09	81
39.1	91
39.11	92
39.12	83
39.13	89
39.14	98
39.15	61
39.16	100
39.17	66
39.18	77
39.19	84
39.2	76
39.21	80
39.22	73
39.23	73
39.24	83
39.25	88
39.26	93
39.27	88
39.28	80
39.29	82
39.3	79
39.31	76
39.32	65
39.33	76
39.34	79
39.35	78
39.36	82
39.37	78
39.38	64
39.39	78
39.4	68
39.41	74
39.42	83
39.43	74
39.44	69
39.45	67
39.46	69
39.47	71
39.48	84
39.49	71
39.5	92
39.51	87
39.52	76
39.53	82
39.54	78
39.55	79
39.56	71
39.57	89
39.58	65
39.59	85
39.6	63
39.61	67
39.62	67
39.63	61
39.64	54
39.65	76
39.66	66
39.67	89
39.68	86
39.69	79
39.7	75
39.71	70
39.72	80
39.73	69
39.74	77
39.75	73
39.76	74
39.77	72
39.78	70
39.79	74
39.8	59
39.81	86
39.82	66
39.83	82
39.84	70
39.85	75
39.86	80
39.87	58
39.88	74
39.89	63
39.9	75
39.91	82
39.92	81
39.93	69
39.94	80
39.95	69
39.96	87
39.97	66
39.98	84
39.99	64
40	70
40.01	72
40.02	62
40.03	93
40.04	73
40.05	64
40.06	81
40.07	80
40.08	85
40.09	87
40.1	90
40.11	100
40.12	90
40.13	75
40.14	75
40.15	83
40.16	73
40.17	79
40.18	69
40.19	65
40.2	81
40.21	77
40.22	62
40.23	77
40.24	90
40.25	82
40.26	65
40.27	75
40.28	92
40.29	76
40.3	64
40.31	66
40.32	74
40.33	65
40.34	80
40.35	59
40.36	56
40.37	66
40.38	62
40.39	51
40.4	60
40.41	65
40.42	65
40.43	59
40.44	78
40.45	73
40.46	57
40.47	67
40.48	67
40.49	72
40.5	66
40.51	53
40.52	75
40.53	77
40.54	67
40.55	76
40.56	72
40.57	64
40.58	51
40.59	68
40.6	69
40.61	67
40.62	69
40.63	64
40.64	65
40.65	56
40.66	76
40.67	67
40.68	77
40.69	58
40.7	70
40.71	67
40.72	67
40.73	59
40.74	65
40.75	75
40.76	70
40.77	88
40.78	74
40.79	64
40.8	79
40.81	57
40.82	73
40.83	55
40.84	51
40.85	69
40.86	71
40.87	68
40.88	68
40.89	76
40.9	77
40.91	60
40.92	59
40.93	67
40.94	75
40.95	77
40.96	76
40.97	64
40.98	75
40.99	69
41	77
41.01	79
41.02	77
41.03	84
41.04	67
41.05	65
41.06	66
41.07	85
41.08	76
41.09	78
41.1	80
41.11	76
41.12	76
41.13	82
41.14	73
41.15	79
41.16	89
41.17	80
41.18	71
41.19	75
41.2	69
41.21	86
41.22	78
41.23	66
41.24	70
41.25	78
41.26	71
41.27	82
41.28	64
41.29	66
41.3	77
41.31	73
41.32	69
41.33	70
41.34	75
41.35	69
41.36	73
41.37	65
41.38	91
41.39	56
41.4	89
41.41	73
41.42	79
41.43	67
41.44	67
41.45	83
41.46	73
41.47	70
41.48	77
41.49	80
41.5	77
41.51	79
41.52	69
41.53	81
41.54	59
41.55	59
41.56	70
41.57	65
41.58	62
41.59	73
41.6	57
41.61	62
41.62	65
41.63	51
41.64	71
41.65	61
41.66	70
41.67	58
41.68	61
41.69	66
41.7	59
41.71	70
41.72	72
41.73	61
41.74	86
41.75	54
41.76	64
41.77	59
41.78	52
41.79	65
41.8	68
41.81	62
41.82	66
41.83	72
41.84	78
41.85	61
41.86	73
41.87	65
41.88	74
41.89	66
41.9	73
41.91	69
41.92	73
41.93	72
41.94	70
41.95	71
41.96	57
41.97	71
41.98	69
41.99	66
42	76
42.01	73
42.02	59
42.03	76
42.04	63
42.05	82
42.06	69
42.07	61
42.08	74
42.09	58
42.1	78
42.11	65
42.12	67
42.13	64
42.14	73
42.15	66
42.16	58
42.17	65
42.18	75
42.19	66
42.2	59
42.21	87
42.22	73
42.23	58
42.24	54
42.25	74
42.26	67
42.27	65
42.28	63
42.29	71
42.3	62
42.31	74
42.32	61
42.33	57
42.34	74
42.35	65
42.36	75
42.37	63
42.38	61
42.39	54
42.4	63
42.41	66
42.42	57
42.43	69
42.44	64
42.45	70
42.46	68
42.47	69
42.48	64
42.49	59
42.5	61
42.51	59
42.52	54
42.53	62
42.54	55
42.55	55
42.56	63
42.57	64
42.58	63
42.59	69
42.6	68
42.61	74
42.62	60
42.63	66
42.64	75
42.65	68
42.66	66
42.67	60
42.68	58
42.69	72
42.7	68
42.71	58
42.72	63
42.73	60
42.74	59
42.75	76
42.76	51
42.77	64
42.78	67
42.79	61
42.8	75
42.81	65
42.82	55
42.83	68
42.84	68
42.85	79
42.86	52
42.87	67
42.88	57
42.89	50
42.9	71
42.91	64
42.92	63
42.93	79
42.94	67
42.95	68
42.96	54
42.97	46
42.98	60
42.99	86
43	84
43.01	68
43.02	78
43.03	68
43.04	67
43.05	77
43.06	68
43.07	70
43.08	65
43.09	79
43.1	63
43.11	78
43.12	85
43.13	58
43.14	68
43.15	77
43.16	76
43.17	65
43.18	86
43.19	86
43.2	61
43.21	61
43.22	74
43.23	81
43.24	72
43.25	75
43.26	64
43.27	70
43.28	84
43.29	64
43.3	73
43.31	81
43.32	81
43.33	75
43.34	73
43.35	68
43.36	64
43.37	84
43.38	64
43.39	73
43.4	75
43.41	72
43.42	58
43.43	69
43.44	58
43.45	80
43.46	61
43.47	62
43.48	69
43.49	74
43.5	68
43.51	73
43.52	67
43.53	75
43.54	73
43.55	77
43.56	77
43.57	79
43.58	108
43.59	80
43.6	71
43.61	66
43.62	71
43.63	71
43.64	71
43.65	74
43.66	79
43.67	69
43.68	78
43.69	77
43.7	77
43.71	91
43.72	77
43.73	83
43.74	73
43.75	82
43.76	74
43.77	77
43.78	66
43.79	67
43.8	82
43.81	91
43.82	76
43.83	84
43.84	59
43.85	62
43.86	80
43.87	66
43.88	81
43.89	71
43.9	82
43.91	77
43.92	77
43.93	71
43.94	90
43.95	80
43.96	54
43.97	66
43.98	73
43.99	92
44	91
44.01	82
44.02	87
44.03	77
44.04	82
44.05	81
44.06	85
44.07	101
44.08	71
44.09	87
44.1	104
44.11	91
44.12	70
44.13	84
44.14	83
44.15	81
44.16	86
44.17	69
44.18	83
44.19	96
44.2	85
44.21	80
44.22	93
44.23	80
44.24	72
44.25	90
44.26	81
44.27	84
44.28	99
44.29	100
44.3	84
44.31	108
44.32	98
44.33	95
44.34	102
44.35	120
44.36	115
44.37	109
44.38	110
44.39	119
44.4	111
44.41	134
44.42	122
44.43	133
44.44	143
44.45	131
44.46	154
44.47	178
44.48	161
44.49	189
44.5	195
44.51	234
44.52	284
44.53	299
44.54	320
44.55	396
44.56	396
44.57	442
44.58	504
44.59	577
44.6	683
44.61	663
44.62	705
44.63	825
44.64	912
44.65	886
44.66	910
44.67	975
44.68	997
44.69	937
44.7	891
44.71	899
44.72	829
44.73	800
44.74	757
44.75	707
44.76	668
44.77	707
44.78	616
44.79	599
44.8	525
44.81	466
44.82	450
44.83	358
44.84	362
44.85	287
44.86	294
44.87	255
44.88	235
44.89	221
44.9	193
44.91	152
44.92	155
44.93	138
44.94	152
44.95	127
44.96	120
44.97	101
44.98	97
44.99	108
45	90
45.01	106
45.02	106
45.03	83
45.04	85
45.05	104
45.06	86
45.07	101
45.08	75
45.09	92
45.1	96
45.11	73
45.12	73
45.13	71
45.14	78
45.15	81
45.16	82
45.17	81
45.18	97
45.19	95
45.2	68
45.21	63
45.22	84
45.23	90
45.24	85
45.25	83
45.26	83
45.27	81
45.28	86
45.29	76
45.3	93
45.31	87
45.32	85
45.33	72
45.34	87
45.35	104
45.36	67
45.37	82
45.38	90
45.39	77
45.4	94
45.41	92
45.42	68
45.43	84
45.44	79
45.45	94
45.46	65
45.47	78
45.48	95
45.49	66
45.5	85
45.51	98
45.52	85
45.53	89
45.54	75
45.55	85
45.56	78
45.57	73
45.58	87
45.59	92
45.6	83
45.61	89
45.62	104
45.63	83
45.64	74
45.65	95
45.66	76
45.67	95
45.68	89
45.69	80
45.7	91
45.71	89
45.72	81
45.73	81
45.74	82
45.75	92
45.76	85
45.77	80
45.78	95
45.79	80
45.8	98
45.81	82
45.82	88
45.83	102
45.84	81
45.85	82
45.86	93
45.87	92
45.88	94
45.89	79
45.9	93
45.91	79
45.92	103
45.93	74
45.94	92
45.95	75
45.96	97
45.97	92
45.98	90
45.99	101
46	94
46.01	80
46.02	92
46.03	90
46.04	91
46.05	94
46.06	73
46.07	92
46.08	79
46.09	88
46.1	96
46.11	84
46.12	85
46.13	87
46.14	63
46.15	82
46.16	92
46.17	77
46.18	85
46.19	83
46.2	84
46.21	82
46.22	84
46.23	75
46.24	67
46.25	80
46.26	82
46.27	71
46.28	75
46.29	64
46.3	78
46.31	70
46.32	85
46.33	69
46.34	80
46.35	83
46.36	76
46.37	77
46.38	90
46.39	74
46.4	76
46.41	84
46.42	77
46.43	81
46.44	79
46.45	96
46.46	83
46.47	86
46.48	77
46.49	65
46.5	61
46.51	76
46.52	96
46.53	71
46.54	81
46.55	80
46.56	84
46.57	92
46.58	83
46.59	80
46.6	84
46.61	88
46.62	83
46.63	79
46.64	77
46.65	69
46.66	75
46.67	73
46.68	78
46.69	62
46.7	89
46.71	76
46.72	98
46.73	64
46.74	80
46.75	85
46.76	85
46.77	81
46.78	80
46.79	87
46.8	68
46.81	76
46.82	73
46.83	75
46.84	75
46.85	72
46.86	85
46.87	76
46.88	75
46.89	88
46.9	77
46.91	81
46.92	82
46.93	65
46.94	84
46.95	92
46.96	67
46.97	77
46.98	81
46.99	52
47	68
47.01	61
47.02	66
47.03	53
47.04	84
47.05	83
47.06	80
47.07	64
47.08	81
47.09	68
47.1	86
47.11	67
47.12	92
47.13	74
47.14	66
47.15	82
47.16	78
47.17	69
47.18	69
47.19	81
47.2	70
47.21	69
47.22	83
47.23	74
47.24	78
47.25	69
47.26	78
47.27	91
47.28	96
47.29	80
47.3	72
47.31	92
47.32	92
47.33	84
47.34	64
47.35	76
47.36	90
47.37	84
47.38	87
47.39	101
47.4	81
47.41	80
47.42	83
47.43	90
47.44	77
47.45	94
47.46	87
47.47	73
47.48	80
47.49	87
47.5	75
47.51	75
47.52	61
47.53	68
47.54	85
47.55	76
47.56	77
47.57	72
47.58	63
47.59	77
47.6	88
47.61	54
47.62	86
47.63	88
47.64	58
47.65	76
47.66	77
47.67	71
47.68	63
47.69	82
47.7	66
47.71	69
47.72	68
47.73	53
47.74	70
47.75	95
47.76	75
47.77	71
47.78	68
47.79	74
47.8	75
47.81	79
47.82	65
47.83	78
47.84	81
47.85	70
47.86	75
47.87	74
47.88	69
47.89	62
47.9	80
47.91	73
47.92	67
47.93	73
47.94	73
47.95	67
47.96	73
47.97	71
47.98	58
47.99	68
48	68
48.01	68
48.02	79
48.03	73
48.04	68
48.05	60
48.06	68
48.07	68
48.08	63
48.09	63
48.1	69
48.11	80
48.12	67
48.13	63
48.14	61
48.15	74
48.16	60
48.17	83
48.18	52
48.19	65
48.2	76
48.21	70
48.22	55
48.23	71
48.24	55
48.25	71
48.26	69
48.27	63
48.28	54
48.29	62
48.3	64
48.31	71
48.32	65
48.33	78
48.34	68
48.35	62
48.36	78
48.37	51
48.38	62
48.39	68
48.4	50
48.41	64
48.42	59
48.43	68
48.44	64
48.45	69
48.46	83
48.47	72
48.48	66
48.49	60
48.5	63
48.51	75
48.52	64
48.53	74
48.54	72
48.55	46
48.56	65
48.57	70
48.58	71
48.59	66
48.6	67
48.61	59
48.62	70
48.63	52
48.64	64
48.65	52
48.66	77
48.67	70
48.68	69
48.69	61
48.7	62
48.71	67
48.72	80
48.73	51
48.74	57
48.75	68
48.76	55
48.77	62
48.78	57
48.79	62
48.8	54
48.81	66
48.82	74
48.83	52
48.84	51
48.85	53
48.86	72
48.87	69
48.88	71
48.89	64
48.9	63
48.91	60
48.92	63
48.93	79
48.94	64
48.95	57
48.96	57
48.97	65
48.98	58
48.99	69
49	49
49.01	63
49.02	41
49.03	52
49.04	41
49.05	53
49.06	54
49.07	69
49.08	76
49.09	66
49.1	60
49.11	61
49.12	54
49.13	72
49.14	64
49.15	43
49.16	62
49.17	53
49.18	53
49.19	55
49.2	61
49.21	60
49.22	43
49.23	58
49.24	57
49.25	53
49.26	53
49.27	68
49.28	43
49.29	55
49.3	57
49.31	56
49.32	56
49.33	51
49.34	59
49.35	70
49.36	53
49.37	54
49.38	58
49.39	52
49.4	49
49.41	44
49.42	54
49.43	67
49.44	65
49.45	76
49.46	72
49.47	68
49.48	63
49.49	47
49.5	55
49.51	51
49.52	70
49.53	59
49.54	59
49.55	66
49.56	77
49.57	55
49.58	44
49.59	48
49.6	64
49.61	54
49.62	50
49.63	49
49.64	60
49.65	69
49.66	48
49.67	55
49.68	58
49.69	55
49.7	56
49.71	46
49.72	69
49.73	52
49.74	48
49.75	54
49.76	64
49.77	50
49.78	56
49.79	53
49.8	59
49.81	57
49.82	45
49.83	55
49.84	55
49.85	67
49.86	44
49.87	70
49.88	54
49.89	54
49.9	62
49.91	64
49.92	54
49.93	68
49.94	60
49.95	45
49.96	53
49.97	57
49.98	69
49.99	62
50	61
50.01	67
50.02	50
50.03	54
50.04	68
50.05	66
50.06	56
50.07	50
50.08	54
50.09	62
50.1	69
50.11	53
50.12	56
50.13	63
50.14	51
50.15	54
50.16	50
50.17	71
50.18	65
50.19	55
50.2	56
50.21	43
50.22	64
50.23	63
50.24	69
50.25	49
50.26	46
50.27	56
50.28	60
50.29	52
50.3	57
50.31	61
50.32	67
50.33	80
50.34	59
50.35	63
50.36	50
50.37	70
50.38	59
50.39	63
50.4	61
50.41	50
50.42	53
50.43	46
50.44	47
50.45	64
50.46	59
50.47	60
50.48	57
50.49	49
50.5	66
50.51	44
50.52	53
50.53	67
50.54	50
50.55	73
50.56	50
50.57	53
50.58	51
50.59	49
50.6	65
50.61	61
50.62	49
50.63	46
50.64	60
50.65	48
50.66	48
50.67	54
50.68	54
50.69	56
50.7	51
50.71	59
50.72	55
50.73	64
50.74	63
50.75	58
50.76	54
50.77	57
50.78	60
50.79	59
50.8	67
50.81	49
50.82	45
50.83	45
50.84	57
50.85	56
50.86	59
50.87	51
50.88	55
50.89	64
50.9	63
50.91	58
50.92	68
50.93	64
50.94	53
50.95	59
50.96	60
50.97	49
50.98	49
50.99	49
51	54
51.01	60
51.02	57
51.03	41
51.04	49
51.05	59
51.06	51
51.07	54
51.08	50
51.09	57
51.1	70
51.11	53
51.12	60
51.13	49
51.14	73
51.15	47
51.16	65
51.17	63
51.18	67
51.19	84
51.2	48
51.21	41
51.22	54
51.23	46
51.24	58
51.25	50
51.26	63
51.27	52
51.28	54
51.29	41
51.3	60
51.31	62
51.32	65
51.33	63
51.34	52
51.35	47
51.36	55
51.37	63
51.38	53
51.39	54
51.4	67
51.41	51
51.42	55
51.43	38
51.44	65
51.45	48
51.46	44
51.47	59
51.48	55
51.49	43
51.5	55
51.51	56
51.52	60
51.53	56
51.54	55
51.55	60
51.56	48
51.57	63
51.58	60
51.59	56
51.6	50
51.61	62
51.62	71
51.63	49
51.64	48
51.65	50
51.66	63
51.67	72
51.68	61
51.69	57
51.7	44
51.71	50
51.72	61
51.73	46
51.74	55
51.75	58
51.76	60
51.77	57
51.78	52
51.79	47
51.8	47
51.81	72
51.82	55
51.83	62
51.84	70
51.85	52
51.86	54
51.87	47
51.88	54
51.89	49
51.9	59
51.91	56
51.92	50
51.93	56
51.94	53
51.95	70
51.96	60
51.97	59
51.98	47
51.99	64
52	59
52.01	55
52.02	62
52.03	65
52.04	49
52.05	52
52.06	65
52.07	54
52.08	55
52.09	45
52.1	44
52.11	66
52.12	55
52.13	53
52.14	54
52.15	53
52.16	62
52.17	60
52.18	46
52.19	49
52.2	57
52.21	56
52.22	64
52.23	54
52.24	75
52.25	75
52.26	60
52.27	67
52.28	71
52.29	49
52.3	81
52.31	53
52.32	64
52.33	64
52.34	49
52.35	57
52.36	62
52.37	56
52.38	58
52.39	66
52.4	61
52.41	65
52.42	48
52.43	54
52.44	69
52.45	51
52.46	57
52.47	46
52.48	52
52.49	53
52.5	69
52.51	65
52.52	48
52.53	54
52.54	52
52.55	68
52.56	58
52.57	53
52.58	60
52.59	67
52.6	61
52.61	53
52.62	75
52.63	59
52.64	56
52.65	57
52.66	62
52.67	77
52.68	66
52.69	59
52.7	60
52.71	60
52.72	74
52.73	71
52.74	63
52.75	68
52.76	57
52.77	48
52.78	60
52.79	58
52.8	67
52.81	80
52.82	53
52.83	52
52.84	76
52.85	74
52.86	68
52.87	62
52.88	53
52.89	58
52.9	60
52.91	53
52.92	54
52.93	62
52.94	78
52.95	67
52.96	63
52.97	72
52.98	65
52.99	66
53	75
53.01	80
53.02	75
53.03	67
53.04	61
53.05	57
53.06	79
53.07	80
53.08	69
53.09	63
53.1	77
53.11	57
53.12	67
53.13	63
53.14	68
53.15	60
53.16	74
53.17	66
53.18	60
53.19	75
53.2	82
53.21	71
53.22	69
53.23	77
53.24	66
53.25	75
53.26	71
53.27	72
53.28	73
53.29	66
53.3	74
53.31	76
53.32	78
53.33	74
53.34	66
53.35	69
53.36	54
53.37	68
53.38	82
53.39	85
53.4	70
53.41	67
53.42	71
53.43	78
53.44	55
53.45	66
53.46	73
53.47	70
53.48	75
53.49	72
53.5	66
53.51	69
53.52	58
53.53	69
53.54	58
53.55	49
53.56	66
53.57	76
53.58	66
53.59	79
53.6	77
53.61	56
53.62	62
53.63	58
53.64	59
53.65	69
53.66	57
53.67	59
53.68	53
53.69	74
53.7	62
53.71	51
53.72	54
53.73	75
53.74	64
53.75	54
53.76	47
53.77	57
53.78	54
53.79	54
53.8	50
53.81	66
53.82	62
53.83	45
53.84	48
53.85	55
53.86	57
53.87	62
53.88	43
53.89	46
53.9	62
53.91	57
53.92	64
53.93	55
53.94	46
53.95	65
53.96	44
53.97	47
53.98	52
53.99	40
54	58
54.01	55
54.02	52
54.03	47
54.04	56
54.05	54
54.06	45
54.07	58
54.08	68
54.09	48
54.1	59
54.11	52
54.12	52
54.13	40
54.14	49
54.15	72
54.16	57
54.17	61
54.18	50
54.19	52
54.2	56
54.21	52
54.22	55
54.23	73
54.24	56
54.25	54
54.26	60
54.27	52
54.28	55
54.29	52
54.3	52
54.31	48
54.32	59
54.33	61
54.34	37
54.35	61
54.36	59
54.37	42
54.38	51
54.39	54
54.4	52
54.41	72
54.42	49
54.43	47
54.44	61
54.45	35
54.46	60
54.47	49
54.48	54
54.49	48
54.5	67
54.51	47
54.52	57
54.53	49
54.54	46
54.55	55
54.56	50
54.57	40
54.58	49
54.59	49
54.6	47
54.61	46
54.62	49
54.63	57
54.64	45
54.65	49
54.66	57
54.67	38
54.68	51
54.69	51
54.7	38
54.71	36
54.72	44
54.73	46
54.74	49
54.75	51
54.76	36
54.77	54
54.78	65
54.79	67
54.8	52
54.81	41
54.82	52
54.83	56
54.84	45
54.85	70
54.86	50
54.87	55
54.88	53
54.89	41
54.9	38
54.91	43
54.92	57
54.93	52
54.94	48
54.95	48
54.96	38
54.97	58
54.98	54
54.99	52
55	45
55.01	44
55.02	42
55.03	42
55.04	33
55.05	52
55.06	56
55.07	37
55.08	46
55.09	45
55.1	55
55.11	62
55.12	50
55.13	41
55.14	50
55.15	48
55.16	44
55.17	51
55.18	48
55.19	60
55.2	55
55.21	47
55.22	42
55.23	55
55.24	54
55.25	54
55.26	52
55.27	59
55.28	57
55.29	53
55.3	56
55.31	47
55.32	44
55.33	46
55.34	51
55.35	63
55.36	40
55.37	59
55.38	42
55.39	46
55.4	49
55.41	62
55.42	41
55.43	52
55.44	33
55.45	61
55.46	56
55.47	37
55.48	42
55.49	55
55.5	56
55.51	36
55.52	46
55.53	42
55.54	49
55.55	56
55.56	51
55.57	43
55.58	49
55.59	46
55.6	34
55.61	54
55.62	44
55.63	48
55.64	48
55.65	56
55.66	48
55.67	44
55.68	50
55.69	54
55.7	53
55.71	45
55.72	29
55.73	44
55.74	56
55.75	52
55.76	47
55.77	48
55.78	44
55.79	44
55.8	33
55.81	52
55.82	43
55.83	60
55.84	56
55.85	51
55.86	52
55.87	65
55.88	51
55.89	40
55.9	47
55.91	42
55.92	49
55.93	44
55.94	47
55.95	42
55.96	38
55.97	38
55.98	45
55.99	43
56	45
56.01	56
56.02	46
56.03	60
56.04	39
56.05	51
56.06	54
56.07	44
56.08	43
56.09	51
56.1	47
56.11	52
56.12	59
56.13	36
56.14	49
56.15	52
56.16	48
56.17	54
56.18	48
56.19	45
56.2	54
56.21	47
56.22	38
56.23	54
56.24	48
56.25	50
56.26	61
56.27	47
56.28	60
56.29	63
56.3	57
56.31	48
56.32	51
56.33	46
56.34	42
56.35	49
56.36	45
56.37	54
56.38	35
56.39	36
56.4	48
56.41	41
56.42	49
56.43	39
56.44	54
56.45	53
56.46	58
56.47	44
56.48	58
56.49	45
56.5	58
56.51	36
56.52	61
56.53	55
56.54	37
56.55	47
56.56	56
56.57	41
56.58	61
56.59	38
56.6	52
56.61	32
56.62	35
56.63	54
56.64	40
56.65	43
56.66	54
56.67	45
56.68	41
56.69	52
56.7	50
56.71	44
56.72	47
56.73	48
56.74	45
56.75	40
56.76	42
56.77	53
56.78	46
56.79	36
56.8	49
56.81	45
56.82	58
56.83	39
56.84	39
56.85	50
56.86	54
56.87	49
56.88	43
56.89	36
56.9	48
56.91	45
56.92	41
56.93	38
56.94	38
56.95	44
56.96	48
56.97	48
56.98	46
56.99	59
57	48
57.01	53
57.02	43
57.03	49
57.04	45
57.05	44
57.06	39
57.07	41
57.08	49
57.09	49
57.1	48
57.11	51
57.12	41
57.13	51
57.14	57
57.15	44
57.16	42
57.17	44
57.18	44
57.19	53
57.2	39
57.21	51
57.22	44
57.23	49
57.24	49
57.25	34
57.26	40
57.27	45
57.28	47
57.29	33
57.3	37
57.31	54
57.32	39
57.33	51
57.34	50
57.35	48
57.36	40
57.37	46
57.38	40
57.39	52
57.4	45
57.41	42
57.42	55
57.43	57
57.44	63
57.45	47
57.46	54
57.47	56
57.48	40
57.49	50
57.5	46
57.51	47
57.52	39
57.53	46
57.54	55
57.55	56
57.56	41
57.57	50
57.58	44
57.59	47
57.6	49
57.61	44
57.62	40
57.63	41
57.64	48
57.65	39
57.66	59
57.67	51
57.68	45
57.69	43
57.7	40
57.71	61
57.72	51
57.73	50
57.74	56
57.75	47
57.76	38
57.77	50
57.78	46
57.79	43
57.8	44
57.81	47
57.82	49
57.83	56
57.84	45
57.85	40
57.86	51
57.87	42
57.88	51
57.89	52
57.9	45
57.91	47
57.92	45
57.93	52
57.94	47
57.95	51
57.96	35
57.97	46
57.98	48
57.99	51
58	52
58.01	47
58.02	63
58.03	36
58.04	58
58.05	49
58.06	61
58.07	45
58.08	37
58.09	48
58.1	48
58.11	45
58.12	59
58.13	45
58.14	47
58.15	47
58.16	48
58.17	38
58.18	55
58.19	51
58.2	47
58.21	49
58.22	52
58.23	44
58.24	56
58.25	61
58.26	48
58.27	37
58.28	49
58.29	40
58.3	61
58.31	43
58.32	56
58.33	46
58.34	46
58.35	38
58.36	52
58.37	40
58.38	43
58.39	35
58.4	47
58.41	48
58.42	51
58.43	41
58.44	56
58.45	50
58.46	41
58.47	34
58.48	38
58.49	49
58.5	38
58.51	35
58.52	51
58.53	37
58.54	49
58.55	58
58.56	51
58.57	48
58.58	41
58.59	44
58.6	50
58.61	44
58.62	54
58.63	44
58.64	43
58.65	49
58.66	28
58.67	39
58.68	55
58.69	47
58.7	48
58.71	40
58.72	36
58.73	28
58.74	40
58.75	46
58.76	46
58.77	39
58.78	34
58.79	41
58.8	41
58.81	54
58.82	36
58.83	31
58.84	45
58.85	39
58.86	35
58.87	41
58.88	38
58.89	68
58.9	42
58.91	35
58.92	45
58.93	51
58.94	45
58.95	47
58.96	67
58.97	35
58.98	38
58.99	48
59	36
59.01	41
59.02	35
59.03	55
59.04	43
59.05	25
59.06	45
59.07	45
59.08	43
59.09	31
59.1	45
59.11	30
59.12	42
59.13	49
59.14	40
59.15	40
59.16	30
59.17	37
59.18	42
59.19	39
59.2	45
59.21	38
59.22	35
59.23	46
59.24	33
59.25	43
59.26	51
59.27	34
59.28	44
59.29	34
59.3	37
59.31	38
59.32	35
59.33	45
59.34	38
59.35	48
59.36	42
59.37	40
59.38	34
59.39	47
59.4	30
59.41	42
59.42	37
59.43	41
59.44	36
59.45	25
59.46	39
59.47	41
59.48	34
59.49	39
59.5	35
59.51	27
59.52	22
59.53	39
59.54	32
59.55	43
59.56	42
59.57	39
59.58	38
59.59	44
59.6	38
59.61	34
59.62	47
59.63	40
59.64	38
59.65	38
59.66	44
59.67	40
59.68	28
59.69	29
59.7	47
59.71	38
59.72	41
59.73	44
59.74	39
59.75	37
59.76	36
59.77	41
59.78	47
59.79	35
59.8	36
59.81	34
59.82	30
59.83	28
59.84	43
59.85	40
59.86	37
59.87	37
59.88	32
59.89	35
59.9	37
59.91	44
59.92	61
59.93	34
59.94	39
59.95	40
59.96	39
59.97	48
59.98	35
59.99	35
60	34
60.01	46
60.02	39
60.03	41
60.04	49
60.05	44
60.06	34
60.07	34
60.08	44
60.09	43
60.1	27
60.11	41
60.12	40
60.13	34
60.14	29
60.15	36
60.16	35
60.17	38
60.18	53
60.19	38
60.2	38
60.21	38
60.22	47
60.23	37
60.24	27
60.25	36
60.26	37
60.27	26
60.28	33
60.29	50
60.3	38
60.31	38
60.32	35
60.33	37
60.34	34
60.35	29
60.36	37
60.37	30
60.38	36
60.39	33
60.4	39
60.41	44
60.42	32
60.43	41
60.44	39
60.45	38
60.46	42
60.47	34
60.48	43
60.49	39
60.5	42
60.51	40
60.52	46
60.53	41
60.54	39
60.55	40
60.56	27
60.57	35
60.58	33
60.59	31
60.6	33
60.61	28
60.62	36
60.63	32
60.64	31
60.65	26
60.66	40
60.67	31
60.68	26
60.69	44
60.7	39
60.71	25
60.72	39
60.73	41
60.74	35
60.75	35
60.76	34
60.77	31
60.78	38
60.79	35
60.8	35
60.81	36
60.82	26
60.83	39
60.84	40
60.85	43
60.86	40
60.87	28
60.88	29
60.89	31
60.9	33
60.91	29
60.92	36
60.93	31
60.94	49
60.95	36
60.96	40
60.97	35
60.98	34
60.99	26
61	39
61.01	36
61.02	35
61.03	33
61.04	48
61.05	44
61.06	47
61.07	36
61.08	45
61.09	47
61.1	38
61.11	35
61.12	35
61.13	22
61.14	30
61.15	36
61.16	32
61.17	39
61.18	40
61.19	40
61.2	35
61.21	48
61.22	36
61.23	34
61.24	39
61.25	35
61.26	34
61.27	31
61.28	31
61.29	33
61.3	30
61.31	37
61.32	49
61.33	32
61.34	32
61.35	32
61.36	47
61.37	24
61.38	36
61.39	30
61.4	28
61.41	25
61.42	45
61.43	35
61.44	29
61.45	29
61.46	40
61.47	29
61.48	41
61.49	42
61.5	39
61.51	41
61.52	43
61.53	34
61.54	30
61.55	41
61.56	39
61.57	37
61.58	36
61.59	28
61.6	38
61.61	42
61.62	36
61.63	23
61.64	44
61.65	34
61.66	43
61.67	34
61.68	40
61.69	38
61.7	36
61.71	24
61.72	43
61.73	32
61.74	39
61.75	38
61.76	34
61.77	33
61.78	30
61.79	24
61.8	31
61.81	36
61.82	42
61.83	47
61.84	48
61.85	29
61.86	44
61.87	40
61.88	37
61.89	36
61.9	39
61.91	36
61.92	32
61.93	28
61.94	34
61.95	34
61.96	27
61.97	25
61.98	31
61.99	35
62	38
62.01	32
62.02	32
62.03	37
62.04	40
62.05	36
62.06	46
62.07	34
62.08	31
62.09	25
62.1	26
62.11	26
62.12	42
62.13	27
62.14	38
62.15	40
62.16	30
62.17	55
62.18	46
62.19	36
62.2	36
62.21	47
62.22	31
62.23	35
62.24	41
62.25	40
62.26	39
62.27	34
62.28	34
62.29	32
62.3	34
62.31	30
62.32	31
62.33	39
62.34	36
62.35	30
62.36	33
62.37	24
62.38	35
62.39	29
62.4	33
62.41	37
62.42	37
62.43	26
62.44	29
62.45	40
62.46	32
62.47	39
62.48	38
62.49	55
62.5	34
62.51	33
62.52	33
62.53	35
62.54	30
62.55	25
62.56	30
62.57	38
62.58	38
62.59	29
62.6	28
62.61	38
62.62	28
62.63	37
62.64	42
62.65	33
62.66	40
62.67	27
62.68	33
62.69	32
62.7	26
62.71	39
62.72	37
62.73	41
62.74	39
62.75	33
62.76	48
62.77	25
62.78	31
62.79	36
62.8	50
62.81	49
62.82	39
62.83	33
62.84	31
62.85	32
62.86	39
62.87	43
62.88	38
62.89	36
62.9	37
62.91	36
62.92	38
62.93	43
62.94	36
62.95	32
62.96	34
62.97	38
62.98	32
62.99	37
63	43
63.01	32
63.02	29
63.03	28
63.04	21
63.05	31
63.06	42
63.07	33
63.08	43
63.09	37
63.1	41
63.11	40
63.12	28
63.13	32
63.14	42
63.15	32
63.16	40
63.17	30
63.18	33
63.19	27
63.2	33
63.21	39
63.22	39
63.23	37
63.24	32
63.25	33
63.26	33
63.27	41
63.28	30
63.29	28
63.3	38
63.31	38
63.32	33
63.33	42
63.34	46
63.35	41
63.36	41
63.37	31
63.38	37
63.39	35
63.4	32
63.41	25
63.42	30
63.43	38
63.44	41
63.45	40
63.46	36
63.47	28
63.48	35
63.49	37
63.5	40
63.51	40
63.52	34
63.53	51
63.54	41
63.55	41
63.56	21
63.57	49
63.58	37
63.59	26
63.6	35
63.61	33
63.62	32
63.63	38
63.64	30
63.65	42
63.66	36
63.67	41
63.68	31
63.69	35
63.7	42
63.71	47
63.72	32
63.73	29
63.74	36
63.75	40
63.76	33
63.77	32
63.78	43
63.79	38
63.8	40
63.81	31
63.82	35
63.83	20
63.84	37
63.85	37
63.86	41
63.87	23
63.88	34
63.89	49
63.9	34
63.91	25
63.92	32
63.93	29
63.94	41
63.95	33
63.96	28
63.97	31
63.98	38
63.99	52
64	45
64.01	31
64.02	35
64.03	34
64.04	24
64.05	38
64.06	47
64.07	41
64.08	43
64.09	34
64.1	38
64.11	45
64.12	37
64.13	33
64.14	36
64.15	46
64.16	44
64.17	40
64.18	35
64.19	31
64.2	54
64.21	47
64.22	29
64.23	40
64.24	38
64.25	48
64.26	37
64.27	43
64.28	56
64.29	42
64.3	41
64.31	36
64.32	37
64.33	28
64.34	39
64.35	35
64.36	54
64.37	34
64.38	34
64.39	56
64.4	53
64.41	35
64.42	37
64.43	33
64.44	35
64.45	49
64.46	35
64.47	47
64.48	41
64.49	39
64.5	38
64.51	34
64.52	41
64.53	34
64.54	40
64.55	41
64.56	39
64.57	42
64.58	39
64.59	53
64.6	40
64.61	42
64.62	51
64.63	30
64.64	53
64.65	35
64.66	33
64.67	39
64.68	42
64.69	44
64.7	39
64.71	39
64.72	46
64.73	41
64.74	49
64.75	49
64.76	38
64.77	36
64.78	45
64.79	45
64.8	39
64.81	40
64.82	34
64.83	46
64.84	48
64.85	45
64.86	58
64.87	43
64.88	56
64.89	60
64.9	53
64.91	46
64.92	48
64.93	77
64.94	74
64.95	80
64.96	81
64.97	100
64.98	86
64.99	82
65	111
65.01	110
65.02	109
65.03	119
65.04	118
65.05	117
65.06	137
65.07	130
65.08	116
65.09	105
65.1	104
65.11	103
65.12	114
65.13	110
65.14	88
65.15	99
65.16	102
65.17	94
65.18	92
65.19	98
65.2	95
65.21	101
65.22	86
65.23	104
65.24	82
65.25	87
65.26	88
65.27	81
65.28	76
65.29	79
65.3	61
65.31	74
65.32	60
65.33	69
65.34	56
65.35	66
65.36	59
65.37	38
65.38	59
65.39	43
65.4	51
65.41	47
65.42	35
65.43	38
65.44	40
65.45	57
65.46	35
65.47	41
65.48	41
65.49	42
65.5	38
65.51	37
65.52	40
65.53	44
65.54	35
65.55	29
65.56	31
65.57	28
65.58	47
65.59	31
65.6	28
65.61	49
65.62	46
65.63	49
65.64	27
65.65	24
65.66	30
65.67	39
65.68	32
65.69	49
65.7	33
65.71	44
65.72	33
65.73	41
65.74	45
65.75	34
65.76	32
65.77	42
65.78	29
65.79	37
65.8	49
65.81	39
65.82	39
65.83	41
65.84	29
65.85	36
65.86	26
65.87	41
65.88	43
65.89	31
65.9	39
65.91	30
65.92	28
65.93	28
65.94	35
65.95	43
65.96	31
65.97	34
65.98	37
65.99	45
66	30
66.01	35
66.02	32
66.03	39
66.04	44
66.05	38
66.06	36
66.07	34
66.08	33
66.09	44
66.1	34
66.11	27
66.12	32
66.13	38
66.14	40
66.15	35
66.16	25
66.17	31
66.18	24
66.19	34
66.2	35
66.21	46
66.22	33
66.23	26
66.24	37
66.25	34
66.26	30
66.27	33
66.28	29
66.29	38
66.3	29
66.31	37
66.32	25
66.33	29
66.34	38
66.35	34
66.36	33
66.37	29
66.38	38
66.39	37
66.4	42
66.41	34
66.42	32
66.43	35
66.44	36
66.45	34
66.46	29
66.47	31
66.48	36
66.49	42
66.5	28
66.51	36
66.52	43
66.53	37
66.54	28
66.55	33
66.56	39
66.57	37
66.58	39
66.59	34
66.6	33
66.61	34
66.62	22
66.63	46
66.64	32
66.65	42
66.66	27
66.67	42
66.68	23
66.69	25
66.7	27
66.71	33
66.72	25
66.73	40
66.74	35
66.75	21
66.76	24
66.77	28
66.78	41
66.79	28
66.8	34
66.81	35
66.82	41
66.83	36
66.84	43
66.85	35
66.86	33
66.87	39
66.88	28
66.89	38
66.9	34
66.91	23
66.92	25
66.93	34
66.94	45
66.95	33
66.96	40
66.97	29
66.98	38
66.99	33
67	20
67.01	36
67.02	27
67.03	30
67.04	34
67.05	31
67.06	30
67.07	29
67.08	40
67.09	31
67.1	26
67.11	31
67.12	35
67.13	45
67.14	27
67.15	31
67.16	39
67.17	37
67.18	31
67.19	36
67.2	35
67.21	40
67.22	40
67.23	33
67.24	37
67.25	33
67.26	39
67.27	44
67.28	26
67.29	32
67.3	32
67.31	30
67.32	31
67.33	28
67.34	36
67.35	27
67.36	35
67.37	33
67.38	29
67.39	33
67.4	25
67.41	29
67.42	34
67.43	40
67.44	25
67.45	32
67.46	34
67.47	32
67.48	32
67.49	36
67.5	34
67.51	32
67.52	36
67.53	27
67.54	25
67.55	36
67.56	31
67.57	27
67.58	23
67.59	21
67.6	38
67.61	22
67.62	43
67.63	34
67.64	29
67.65	37
67.66	28
67.67	30
67.68	41
67.69	26
67.7	18
67.71	40
67.72	34
67.73	39
67.74	29
67.75	36
67.76	24
67.77	34
67.78	28
67.79	29
67.8	23
67.81	28
67.82	28
67.83	31
67.84	40
67.85	27
67.86	27
67.87	31
67.88	35
67.89	38
67.9	33
67.91	22
67.92	31
67.93	34
67.94	45
67.95	28
67.96	33
67.97	33
67.98	26
67.99	23
68	38
68.01	33
68.02	37
68.03	27
68.04	32
68.05	24
68.06	31
68.07	29
68.08	34
68.09	37
68.1	28
68.11	35
68.12	25
68.13	30
68.14	29
68.15	34
68.16	32
68.17	35
68.18	38
68.19	45
68.2	28
68.21	33
68.22	38
68.23	26
68.24	26
68.25	40
68.26	39
68.27	32
68.28	40
68.29	23
68.3	25
68.31	19
68.32	32
68.33	43
68.34	13
68.35	33
68.36	31
68.37	30
68.38	34
68.39	28
68.4	32
68.41	30
68.42	36
68.43	21
68.44	19
68.45	42
68.46	46
68.47	28
68.48	26
68.49	31
68.5	25
68.51	28
68.52	21
68.53	32
68.54	25
68.55	44
68.56	35
68.57	32
68.58	32
68.59	31
68.6	26
68.61	27
68.62	27
68.63	29
68.64	35
68.65	33
68.66	29
68.67	35
68.68	38
68.69	23
68.7	33
68.71	28
68.72	27
68.73	41
68.74	39
68.75	29
68.76	35
68.77	32
68.78	36
68.79	40
68.8	28
68.81	26
68.82	27
68.83	31
68.84	26
68.85	33
68.86	33
68.87	23
68.88	30
68.89	45
68.9	33
68.91	44
68.92	37
68.93	23
68.94	26
68.95	29
68.96	16
68.97	32
68.98	32
68.99	25
69	34
69.01	30
69.02	24
69.03	41
69.04	35
69.05	36
69.06	28
69.07	31
69.08	31
69.09	37
69.1	43
69.11	24
69.12	23
69.13	30
69.14	24
69.15	35
69.16	36
69.17	23
69.18	29
69.19	40
69.2	36
69.21	34
69.22	28
69.23	22
69.24	45
69.25	29
69.26	44
69.27	31
69.28	30
69.29	26
69.3	41
69.31	29
69.32	30
69.33	33
69.34	37
69.35	16
69.36	34
69.37	27
69.38	28
69.39	40
69.4	43
69.41	27
69.42	35
69.43	37
69.44	41
69.45	35
69.46	29
69.47	30
69.48	32
69.49	33
69.5	35
69.51	33
69.52	29
69.53	29
69.54	29
69.55	31
69.56	40
69.57	40
69.58	44
69.59	33
69.6	18
69.61	39
69.62	32
69.63	31
69.64	44
69.65	38
69.66	39
69.67	23
69.68	21
69.69	33
69.7	38
69.71	38
69.72	41
69.73	32
69.74	23
69.75	35
69.76	35
69.77	30
69.78	24
69.79	26
69.8	38
69.81	33
69.82	19
69.83	39
69.84	36
69.85	39
69.86	17
69.87	22
69.88	41
69.89	27
69.9	34
69.91	32
69.92	28
69.93	40
69.94	34
69.95	27
69.96	31
69.97	28
69.98	30
69.99	25
70	30
70.01	33
70.02	23
70.03	34
70.04	22
70.05	31
70.06	40
70.07	24
70.08	22
70.09	28
70.1	39
70.11	23
70.12	18
70.13	34
70.14	31
70.15	37
70.16	32
70.17	32
70.18	34
70.19	24
70.2	34
70.21	28
70.22	25
70.23	36
70.24	41
70.25	36
70.26	31
70.27	38
70.28	30
70.29	41
70.3	32
70.31	35
70.32	31
70.33	33
70.34	37
70.35	31
70.36	37
70.37	36
70.38	30
70.39	35
70.4	30
70.41	28
70.42	38
70.43	26
70.44	31
70.45	33
70.46	33
70.47	34
70.48	25
70.49	33
70.5	25
70.51	25
70.52	35
70.53	32
70.54	30
70.55	36
70.56	40
70.57	39
70.58	31
70.59	32
70.6	27
70.61	32
70.62	30
70.63	23
70.64	28
70.65	33
70.66	38
70.67	41
70.68	33
70.69	26
70.7	40
70.71	36
70.72	23
70.73	26
70.74	33
70.75	41
70.76	36
70.77	28
70.78	32
70.79	23
70.8	37
70.81	28
70.82	34
70.83	35
70.84	38
70.85	36
70.86	30
70.87	33
70.88	28
70.89	39
70.9	33
70.91	25
70.92	45
70.93	30
70.94	30
70.95	40
70.96	34
70.97	29
70.98	39
70.99	32
71	23
71.01	34
71.02	36
71.03	27
71.04	39
71.05	34
71.06	32
71.07	36
71.08	36
71.09	36
71.1	33
71.11	29
71.12	38
71.13	34
71.14	37
71.15	33
71.16	36
71.17	34
71.18	41
71.19	49
71.2	30
71.21	33
71.22	35
71.23	29
71.24	34
71.25	36
71.26	32
71.27	31
71.28	21
71.29	32
71.3	33
71.31	36
71.32	30
71.33	35
71.34	28
71.35	41
71.36	20
71.37	21
71.38	31
71.39	27
71.4	33
71.41	34
71.42	28
71.43	34
71.44	32
71.45	31
71.46	43
71.47	29
71.48	29
71.49	31
71.5	41
71.51	32
71.52	23
71.53	31
71.54	25
71.55	32
71.56	32
71.57	28
71.58	29
71.59	38
71.6	35
71.61	26
71.62	34
71.63	32
71.64	31
71.65	31
71.66	35
71.67	28
71.68	24
71.69	25
71.7	25
71.71	25
71.72	28
71.73	34
71.74	36
71.75	44
71.76	28
71.77	29
71.78	23
71.79	32
71.8	25
71.81	31
71.82	33
71.83	26
71.84	38
71.85	44
71.86	26
71.87	29
71.88	27
71.89	34
71.9	27
71.91	28
71.92	34
71.93	37
71.94	39
71.95	31
71.96	26
71.97	24
71.98	37
71.99	26
72	21
72.01	30
72.02	29
72.03	29
72.04	40
72.05	30
72.06	25
72.07	32
72.08	38
72.09	34
72.1	26
72.11	33
72.12	17
72.13	28
72.14	32
72.15	29
72.16	27
72.17	35
72.18	31
72.19	23
72.2	42
72.21	19
72.22	24
72.23	23
72.24	30
72.25	34
72.26	30
72.27	27
72.28	30
72.29	36
72.3	33
72.31	32
72.32	33
72.33	37
72.34	34
72.35	23
72.36	26
72.37	34
72.38	31
72.39	27
72.4	33
72.41	44
72.42	27
72.43	30
72.44	26
72.45	25
72.46	37
72.47	25
72.48	31
72.49	46
72.5	30
72.51	37
72.52	19
72.53	32
72.54	33
72.55	27
72.56	19
72.57	28
72.58	26
72.59	29
72.6	34
72.61	32
72.62	28
72.63	28
72.64	22
72.65	42
72.66	18
72.67	26
72.68	27
72.69	36
72.7	35
72.71	28
72.72	28
72.73	37
72.74	25
72.75	36
72.76	25
72.77	31
72.78	28
72.79	32
72.8	23
72.81	38
72.82	28
72.83	33
72.84	39
72.85	23
72.86	30
72.87	28
72.88	26
72.89	33
72.9	35
72.91	30
72.92	36
72.93	27
72.94	29
72.95	24
72.96	18
72.97	35
72.98	36
72.99	29
73	20
73.01	21
73.02	20
73.03	31
73.04	28
73.05	35
73.06	25
73.07	34
73.08	31
73.09	27
73.1	29
73.11	29
73.12	22
73.13	28
73.14	22
73.15	27
73.16	26
73.17	31
73.18	26
73.19	30
73.2	30
73.21	23
73.22	27
73.23	27
73.24	28
73.25	32
73.26	32
73.27	23
73.28	23
73.29	31
73.3	41
73.31	25
73.32	31
73.33	29
73.34	29
73.35	36
73.36	30
73.37	32
73.38	25
73.39	15
73.4	25
73.41	27
73.42	22
73.43	33
73.44	31
73.45	26
73.46	28
73.47	24
73.48	29
73.49	36
73.5	20
73.51	21
73.52	28
73.53	24
73.54	21
73.55	36
73.56	29
73.57	26
73.58	29
73.59	21
73.6	27
73.61	32
73.62	22
73.63	23
73.64	28
73.65	29
73.66	33
73.67	30
73.68	27
73.69	26
73.7	24
73.71	23
73.72	35
73.73	25
73.74	26
73.75	20
73.76	24
73.77	22
73.78	25
73.79	33
73.8	31
73.81	36
73.82	23
73.83	21
73.84	32
73.85	31
73.86	34
73.87	31
73.88	27
73.89	21
73.9	26
73.91	33
73.92	25
73.93	15
73.94	28
73.95	28
73.96	28
73.97	31
73.98	22
73.99	26
74	31
74.01	32
74.02	26
74.03	16
74.04	28
74.05	22
74.06	24
74.07	34
74.08	21
74.09	32
74.1	47
74.11	19
74.12	31
74.13	23
74.14	19
74.15	35
74.16	34
74.17	28
74.18	29
74.19	42
74.2	27
74.21	25
74.22	30
74.23	28
74.24	32
74.25	26
74.26	28
74.27	25
74.28	36
74.29	29
74.3	26
74.31	24
74.32	20
74.33	31
74.34	29
74.35	24
74.36	27
74.37	22
74.38	36
74.39	25
74.4	33
74.41	32
74.42	25
74.43	27
74.44	28
74.45	14
74.46	33
74.47	34
74.48	26
74.49	28
74.5	32
74.51	31
74.52	27
74.53	29
74.54	32
74.55	23
74.56	30
74.57	43
74.58	20
74.59	29
74.6	25
74.61	28
74.62	26
74.63	20
74.64	32
74.65	42
74.66	23
74.67	27
74.68	22
74.69	25
74.7	28
74.71	25
74.72	43
74.73	29
74.74	23
74.75	25
74.76	22
74.77	31
74.78	23
74.79	23
74.8	30
74.81	31
74.82	19
74.83	37
74.84	23
74.85	35
74.86	40
74.87	26
74.88	30
74.89	24
74.9	22
74.91	24
74.92	31
74.93	27
74.94	40
74.95	19
74.96	34
74.97	23
74.98	36
74.99	31
75	26
75.01	30
75.02	41
75.03	38
75.04	31
75.05	21
75.06	21
75.07	28
75.08	31
75.09	26
75.1	30
75.11	34
75.12	29
75.13	39
75.14	24
75.15	21
75.16	33
75.17	35
75.18	39
75.19	37
75.2	29
75.21	29
75.22	28
75.23	25
75.24	20
75.25	40
75.26	26
75.27	25
75.28	22
75.29	30
75.3	32
75.31	26
75.32	23
75.33	39
75.34	37
75.35	30
75.36	31
75.37	34
75.38	25
75.39	21
75.4	24
75.41	34
75.42	24
75.43	37
75.44	27
75.45	32
75.46	35
75.47	25
75.48	30
75.49	28
75.5	22
75.51	27
75.52	33
75.53	28
75.54	34
75.55	23
75.56	25
75.57	26
75.58	30
75.59	26
75.6	30
75.61	31
75.62	32
75.63	35
75.64	37
75.65	22
75.66	32
75.67	32
75.68	33
75.69	35
75.7	30
75.71	38
75.72	18
75.73	34
75.74	23
75.75	30
75.76	26
75.77	36
75.78	38
75.79	30
75.8	36
75.81	32
75.82	12
75.83	26
75.84	35
75.85	34
75.86	31
75.87	32
75.88	22
75.89	30
75.9	33
75.91	24
75.92	28
75.93	27
75.94	28
75.95	25
75.96	36
75.97	23
75.98	30
75.99	26
76	21
76.01	30
76.02	32
76.03	30
76.04	20
76.05	23
76.06	26
76.07	22
76.08	28
76.09	22
76.1	28
76.11	32
76.12	22
76.13	18
76.14	22
76.15	23
76.16	21
76.17	23
76.18	31
76.19	31
76.2	23
76.21	35
76.22	22
76.23	26
76.24	20
76.25	22
76.26	26
76.27	29
76.28	30
76.29	27
76.3	24
76.31	25
76.32	23
76.33	23
76.34	32
76.35	34
76.36	24
76.37	26
76.38	19
76.39	33
76.4	36
76.41	36
76.42	28
76.43	27
76.44	23
76.45	27
76.46	28
76.47	32
76.48	28
76.49	23
76.5	26
76.51	26
76.52	20
76.53	27
76.54	18
76.55	26
76.56	20
76.57	29
76.58	36
76.59	24
76.6	33
76.61	21
76.62	30
76.63	31
76.64	27
76.65	21
76.66	34
76.67	28
76.68	26
76.69	30
76.7	18
76.71	27
76.72	30
76.73	34
76.74	28
76.75	22
76.76	28
76.77	28
76.78	28
76.79	29
76.8	35
76.81	23
76.82	27
76.83	27
76.84	25
76.85	28
76.86	25
76.87	32
76.88	25
76.89	25
76.9	27
76.91	31
76.92	15
76.93	31
76.94	31
76.95	32
76.96	26
76.97	30
76.98	22
76.99	28
77	26
77.01	29
77.02	18
77.03	35
77.04	14
77.05	33
77.06	23
77.07	29
77.08	26
77.09	33
77.1	28
77.11	24
77.12	21
77.13	31
77.14	17
77.15	31
77.16	25
77.17	24
77.18	30
77.19	23
77.2	28
77.21	24
77.22	33
77.23	24
77.24	40
77.25	27
77.26	39
77.27	29
77.28	31
77.29	34
77.3	32
77.31	35
77.32	30
77.33	28
77.34	32
77.35	30
77.36	30
77.37	26
77.38	31
77.39	23
77.4	25
77.41	31
77.42	21
77.43	29
77.44	31
77.45	37
77.46	31
77.47	21
77.48	27
77.49	29
77.5	34
77.51	34
77.52	32
77.53	25
77.54	24
77.55	29
77.56	32
77.57	37
77.58	23
77.59	27
77.6	44
77.61	35
77.62	31
77.63	28
77.64	22
77.65	29
77.66	22
77.67	38
77.68	25
77.69	28
77.7	32
77.71	26
77.72	31
77.73	38
77.74	30
77.75	31
77.76	31
77.77	38
77.78	31
77.79	38
77.8	52
77.81	31
77.82	27
77.83	36
77.84	27
77.85	29
77.86	45
77.87	40
77.88	45
77.89	43
77.9	38
77.91	33
77.92	36
77.93	38
77.94	34
77.95	43
77.96	42
77.97	52
77.98	46
77.99	56
78	58
78.01	52
78.02	74
78.03	91
78.04	70
78.05	78
78.06	87
78.07	102
78.08	99
78.09	117
78.1	118
78.11	147
78.12	154
78.13	156
78.14	141
78.15	169
78.16	185
78.17	163
78.18	187
78.19	182
78.2	179
78.21	207
78.22	170
78.23	181
78.24	147
78.25	155
78.26	157
78.27	135
78.28	129
78.29	137
78.3	107
78.31	114
78.32	121
78.33	134
78.34	104
78.35	110
78.36	122
78.37	126
78.38	117
78.39	128
78.4	128
78.41	134
78.42	122
78.43	101
78.44	118
78.45	131
78.46	100
78.47	82
78.48	87
78.49	94
78.5	90
78.51	80
78.52	59
78.53	78
78.54	75
78.55	54
78.56	57
78.57	51
78.58	59
78.59	41
78.6	49
78.61	46
78.62	45
78.63	46
78.64	44
78.65	40
78.66	35
78.67	44
78.68	39
78.69	40
78.7	37
78.71	44
78.72	34
78.73	31
78.74	25
78.75	25
78.76	36
78.77	41
78.78	37
78.79	30
78.8	26
78.81	28
78.82	23
78.83	36
78.84	33
78.85	36
78.86	42
78.87	32
78.88	43
78.89	37
78.9	30
78.91	28
78.92	27
78.93	25
78.94	22
78.95	27
78.96	25
78.97	35
78.98	26
78.99	28
79	35
79.01	25
79.02	26
79.03	36
79.04	36
79.05	28
79.06	20
79.07	30
79.08	22
79.09	29
79.1	32
79.11	28
79.12	38
79.13	25
79.14	28
79.15	22
79.16	41
79.17	38
79.18	30
79.19	28
79.2	33
79.21	20
79.22	28
79.23	32
79.24	30
79.25	28
79.26	33
79.27	30
79.28	30
79.29	32
79.3	27
79.31	33
79.32	35
79.33	31
79.34	24
79.35	29
79.36	28
79.37	28
79.38	31
79.39	32
79.4	36
79.41	23
79.42	39
79.43	42
79.44	32
79.45	35
79.46	26
79.47	32
79.48	24
79.49	32
79.5	29
79.51	34
79.52	18
79.53	27
79.54	32
79.55	33
79.56	29
79.57	31
79.58	24
79.59	27
79.6	25
79.61	38
79.62	27
79.63	23
79.64	33
79.65	27
79.66	26
79.67	28
79.68	30
79.69	34
79.7	37
79.71	27
79.72	30
79.73	27
79.74	23
79.75	26
79.76	31
79.77	39
79.78	30
79.79	36
79.8	34
79.81	32
79.82	25
79.83	24
79.84	25
79.85	34
79.86	30
79.87	25
79.88	35
79.89	27
79.9	26
79.91	27
79.92	25
79.93	24
79.94	27
79.95	26
79.96	23
79.97	18
79.98	27
79.99	29
80	36